Time,Mass,Radius,Lx
23.0,11.419806757177295,6.41,0.0
23.100002009282885,11.417521864666599,6.404133460549403,0.0
23.20000401856577,11.415283862013958,6.398352070638591,0.0
23.300006027848656,11.413091531965524,6.392653893030619,0.0
23.400008037131542,11.410943695808367,6.3870370457988095,0.0
23.500010046414427,11.408839211923185,6.381499700464399,0.0
23.600012055697313,11.406776974400008,6.3760400802058825,0.0
23.7000140649802,11.40475591171377,6.370656458136946,0.0
23.800016074263084,11.40277498545682,6.365347155650106,0.0
23.90001808354597,11.400833189125583,6.360110540823177,0.0
24.000020092828855,11.398929546958735,6.354945026885957,0.0
24.10002210211174,11.397063112824407,6.3498490707445505,0.0
24.200024111394626,11.395232969154081,6.344821171560916,0.0
24.30002612067751,11.393438225920928,6.339859869385322,0.0
24.400028129960397,11.391678019660489,6.33496374383949,0.0
24.500030139243282,11.389951512531718,6.330131412848322,0.0
24.600032148526168,11.388257891416472,6.325361531418244,0.0
24.700034157809053,11.38659636705567,6.320652790460146,0.0
24.80003616709194,11.384966173220425,6.316003915655207,0.0
24.900038176374824,11.38336656591653,6.311413666361755,0.0
25.00004018565771,11.381796822620782,6.3068808345615714,0.0
25.100042194940595,11.380256241547684,6.302404243843986,0.0
25.20004420422348,11.378744140945157,6.297982748426261,0.0
25.300046213506366,11.377259858417954,6.293615232208813,0.0
25.400048222789252,11.375802750277538,6.289300607863881,0.0
25.500050232072137,11.374372190917247,6.285037815956292,0.0
25.600052241355023,11.37296757221163,6.280825824095082,0.0
25.70005425063791,11.371588302938873,6.276663626114722,0.0
25.800056259920794,11.370233808225336,6.272550241284817,0.0
25.90005826920368,11.368903529011213,6.268484713547151,0.0
26.000060278486565,11.367596921536407,6.264466110779013,0.0
26.10006228776945,11.366313456845761,6.260493524081786,0.0
26.200064297052336,11.365052620312797,6.256566067093829,0.0
26.30006630633522,11.363813911181195,6.252682875326704,0.0
26.400068315618107,11.36259684212325,6.248843105523893,0.0
26.500070324900992,11.36140093881459,6.245045935041102,0.0
26.600072334183878,11.360225739524482,6.241290561247345,0.0
26.700074343466763,11.359070794721067,6.237576200946057,0.0
26.80007635274965,11.357935666690913,6.233902089815436,0.0
26.900078362032534,11.356819929172296,6.230267481867319,0.0
27.00008037131542,11.355723167001633,6.226671648923913,0.0
27.100082380598305,11.354644975772546,6.223113880111676,0.0
27.20008438988119,11.353584961507037,6.219593481371765,0.0
27.300086399164076,11.352542740338286,6.216109774986391,0.0
27.400088408446962,11.3515179382046,6.21266209912055,0.0
27.500090417729847,11.350510190554072,6.209249807378512,0.0
27.600092427012733,11.349519142059531,6.205872268374591,0.0
27.70009443629562,11.348544446343357,6.202528865317623,0.0
27.800096445578504,11.347585765711793,6.199218995608696,0.0
27.90009845486139,11.346642770898361,6.19594207045164,0.0
28.000100464144275,11.345715140816047,6.192697514475819,0.0
28.10010247342716,11.344802562317906,6.189484765370812,0.0
28.200104482710046,11.343904729965752,6.186303273532506,0.0
28.30010649199293,11.343021345806646,6.183152501720269,0.0
28.400108501275817,11.342152119156852,6.180031924724746,0.0
28.500110510558702,11.341296766393011,6.176941029045958,0.0
28.600112519841588,11.340455010750233,6.1738793125813185,0.0
28.700114529124473,11.33962658212686,6.1708462843232095,0.0
28.80011653840736,11.338811216895639,6.167841464065837,0.0
28.900118547690244,11.338008657721089,6.164864382120978,0.0
29.00012055697313,11.337218653382788,6.161914579042367,0.0
29.100122566256015,11.33644095860442,6.158991605358413,0.0
29.2001245755389,11.335675333888311,6.156095021312932,0.0
29.300126584821786,11.334921545355295,6.153224396613684,0.0
29.40012859410467,11.334179364589694,6.150379310188374,0.0
29.500130603387557,11.333448568489239,6.1475593499479455,0.0
29.600132612670443,11.332728939119736,6.144764112556869,0.0
29.700134621953328,11.332020263574332,6.141993203210184,0.0
29.800136631236214,11.331322333837184,6.139246235417126,0.0
29.9001386405191,11.330634946651408,6.136522830791067,0.0
30.000140649801985,11.32995790339113,6.133822618845578,0.0
30.10014265908487,11.329291009937501,6.131145236796421,0.0
30.200144668367756,11.328634076558552,6.128490329369271,0.0
30.30014667765064,11.327986917792725,6.125857548612959,0.0
30.400148686933527,11.327349352335977,6.123246553718106,0.0
30.500150696216412,11.326721202932324,6.12065701084091,0.0
30.600152705499298,11.326102296267706,6.118088592931992,0.0
30.700154714782183,11.325492462867052,6.115540979570049,0.0
30.80015672406507,11.324891536994453,6.113013856800267,0.0
30.900158733347954,11.324299356556317,6.110506916977229,0.0
31.00016074263084,11.323715763007415,6.108019858612279,0.0
31.100162751913725,11.323140601259723,6.105552386225112,0.0
31.20016476119661,11.322573719593958,6.103104210199536,0.0
31.300166770479496,11.322014969573717,6.1006750466432,0.0
31.40016877976238,11.321464205962144,6.098264617251228,0.0
31.500170789045267,11.320921286641031,6.095872649173588,0.0
31.600172798328153,11.320386072532266,6.093498874886118,0.0
31.700174807611038,11.319858427521565,6.091143032065057,0.0
31.800176816893924,11.319338218384413,6.088804863465027,0.0
31.90017882617681,11.318825314714118,6.086484116800277,0.0
32.000180835459695,11.318319588851944,6.084180544629195,0.0
32.100182844742584,11.317820915819224,6.081893904241886,0.0
32.20018485402547,11.317329173251414,6.0796239575507975,0.0
32.30018686330836,11.316844241334003,6.077370470984251,0.0
32.40018887259125,11.31636600274024,6.075133215382824,0.0
32.50019088187414,11.315894342570605,6.072911965898481,0.0
32.60019289115703,11.315429148293974,6.0707065018963675,0.0
32.70019490043992,11.31497030969043,6.068516606859209,0.0
32.80019690972281,11.314517718795653,6.066342068294203,0.0
32.900198919005696,11.314071269846854,6.064182677642366,0.0
33.000200928288585,11.313630859230202,6.062038230190229,0.0
33.100202937571474,11.313196385429682,6.059908524983847,0.0
33.20020494685436,11.312767748977373,6.057793364745024,0.0
33.30020695613725,11.312344852405062,6.05569255578971,0.0
33.40020896542014,11.311927600197173,6.053605907948482,0.0
33.50021097470303,11.311515898744984,6.051533234489087,0.0
33.60021298398592,11.311109656302067,6.049474352040944,0.0
33.70021499326881,11.310708782940921,6.047429080521582,0.0
33.8002170025517,11.310313190510774,6.0453972430649365,0.0
33.90021901183459,11.309922792596506,6.04337866595146,0.0
34.000221021117476,11.30953750447866,6.041373178540002,0.0
34.100223030400365,11.30915724309452,6.039380613201393,0.0
34.200225039683254,11.3087819270002,6.037400805253684,0.0
34.30022704896614,11.308411476333754,6.035433592899031,0.0
34.40022905824903,11.308045812779218,6.0334788171620986,0.0
34.50023106753192,11.307684859531623,6.0315363218300515,0.0
34.60023307681481,11.307328541262894,6.029605953393974,0.0
34.7002350860977,11.30697678408865,6.02768756099176,0.0
34.80023709538059,11.306629515535846,6.025780996352404,0.0
34.90023910466348,11.306286664511251,6.023886113741639,0.0
35.000241113946366,11.305948161270749,6.022002769908918,0.0
35.100243123229255,11.3056139373894,6.020130824035666,0.0
35.200245132512144,11.305283925732278,6.0182701376847945,0.0
35.30024714179503,11.304958060426053,6.016420574751438,0.0
35.40024915107792,11.304636276831276,6.014582001414865,0.0
35.50025116036081,11.304318511515378,6.012754286091546,0.0
35.6002531696437,11.304004702226333,6.010937299389349,0.0
35.70025517892659,11.303694787866995,6.0091309140628155,0.0
35.80025718820948,11.303388708470063,6.007335004969512,0.0
35.90025919749237,11.303086405173671,6.00554944902739,0.0
36.00026120677526,11.30278782019759,6.003774125173184,0.0
36.100263216058146,11.302492896820011,6.00200891432177,0.0
36.200265225341035,11.302201579354895,6.000253699326462,0.0
36.300267234623924,11.301913813129893,5.998508364940273,0.0
36.40026924390681,11.301629544464793,5.996772797778046,0.0
36.5002712531897,11.301348720650497,5.99504688627947,0.0
36.60027326247259,11.301071289928508,5.9933305206729734,0.0
36.70027527175548,11.300797201470916,5.991623592940416,0.0
36.80027728103837,11.300526405360865,5.989925996782622,0.0
36.90027929032126,11.300258852573489,5.9882376275856934,0.0
37.00028129960415,11.299994494957307,5.986558382388081,0.0
37.100283308887036,11.299733285216062,5.984888159848417,0.0
37.200285318169925,11.299475176890994,5.983226860214094,0.0
37.300287327452814,11.29922012434353,5.9815743852905126,0.0
37.4002893367357,11.29896808273839,5.979930638411071,0.0
37.50029134601859,11.298719008027092,5.978295524407793,0.0
37.60029335530148,11.29847285693183,5.976668949582633,0.0
37.70029536458437,11.298229586929756,5.975050821679421,0.0
37.80029737386726,11.297989156237604,5.973441049856426,0.0
37.90029938315015,11.297751523796693,5.971839544659536,0.0
38.00030139243304,11.297516649258265,5.970246217996031,0.0
38.10030340171593,11.297284492969165,5.9686609831089275,0.0
38.200305410998816,11.29705501595786,5.967083754551897,0.0
38.300307420281705,11.296828179920768,5.96551444816474,0.0
38.400309429564594,11.296603947208913,5.963952981049374,0.0
38.50031143884748,11.296382280814873,5.962399271546371,0.0
38.60031344813037,11.296163144360035,5.960853239211991,0.0
38.70031545741326,11.295946502082137,5.959314804795712,0.0
38.80031746669615,11.295732318823092,5.957783890218263,0.0
38.90031947597904,11.295520560017088,5.956260418550107,0.0
39.00032148526193,11.295311191678957,5.9547443139904,0.0
39.10032349454482,11.295104180392803,5.953235501846402,0.0
39.200325503827706,11.294899493300887,5.9517339085133205,0.0
39.300327513110595,11.294697098092762,5.950239461454588,0.0
39.400329522393484,11.294496962994645,5.948752089182566,0.0
39.50033153167637,11.29429905675903,5.947271721239632,0.0
39.60033354095926,11.294103348654529,5.9457982881797005,0.0
39.70033555024215,11.293909808455936,5.944331721550098,0.0
39.80033755952504,11.293718406434513,5.9428719538738495,0.0
39.90033956880793,11.29352911334849,5.941418918632319,0.0
40.00034157809082,11.293341900433763,5.939972550248214,0.0
40.10034358737371,11.293156739394815,5.938532784068945,0.0
40.2003455966566,11.292973602395811,5.937099556350322,0.0
40.300347605939486,11.292792462051903,5.935672804240607,0.0
40.400349615222375,11.292613291420718,5.934252465764882,0.0
40.500351624505264,11.29243606399403,5.932838479809737,0.0
40.60035363378815,11.292260753689611,5.931430786108283,0.0
40.70035564307104,11.292087334843256,5.930029325225453,0.0
40.80035765235393,11.291915782200979,5.928634038543624,0.0
40.90035966163682,11.291746070911381,5.927244868248518,0.0
41.00036167091971,11.29157817651817,5.9258617573153884,0.0
41.1003636802026,11.29141207495285,5.924484649495495,0.0
41.20036568948549,11.291247742527556,5.923113489302841,0.0
41.300367698768376,11.29108515592805,5.921748222001186,0.0
41.400369708051265,11.290924292206855,5.920388793591311,0.0
41.500371717334154,11.290765128776538,5.919035150798541,0.0
41.60037372661704,11.290607643403135,5.917687241060518,0.0
41.70037573589993,11.290451814199708,5.916345012515217,0.0
41.80037774518282,11.290297619620041,5.915008413989193,0.0
41.90037975446571,11.290145038452467,5.913677394986076,0.0
42.0003817637486,11.289994049813815,5.912351905675264,0.0
42.10038377303149,11.289844633143499,5.911031896880877,0.0
42.20038578231438,11.289696768197706,5.9097173200708895,0.0
42.30038779159727,11.289550435043724,5.90840812734651,0.0
42.400389800880156,11.289405614054372,5.907104271431722,0.0
42.500391810163045,11.289262285902554,5.905805705663086,0.0
42.600393819445934,11.289120431555917,5.9045123839796965,0.0
42.70039582872882,11.288980032271619,5.903224260913337,0.0
42.80039783801171,11.288841069591205,5.901941291578847,0.0
42.9003998472946,11.28870352533559,5.900663431664658,0.0
43.00040185657749,11.288567380825178,5.899390636187535,0.0
43.10040386586038,11.288432039556763,5.898121938897107,0.0
43.20040587514327,11.288296923205037,5.896856403333807,0.0
43.30040788442616,11.28816203087776,5.89559401425203,0.0
43.400409893709046,11.288027361688295,5.894334756514818,0.0
43.500411902991935,11.287892914755544,5.893078615092827,0.0
43.600413912274824,11.28775868920391,5.891825575063322,0.0
43.70041592155771,11.287624684163255,5.890575621609182,0.0
43.8004179308406,11.28749089876884,5.889328740017893,0.0
43.90041994012349,11.287357332161294,5.888084915680604,0.0
44.00042194940638,11.287223983486554,5.886844134091126,0.0
44.10042395868927,11.287090851895831,5.88560638084501,0.0
44.20042596797216,11.286957936545564,5.88437164163858,0.0
44.30042797725505,11.28682523659737,5.883139902268022,0.0
44.40042998653794,11.286692751218006,5.881911148628443,0.0
44.500431995820826,11.286560479579325,5.880685366712976,0.0
44.600434005103715,11.286428420858234,5.879462542611872,0.0
44.700436014386604,11.28629657423665,5.878242662511614,0.0
44.80043802366949,11.286164938901457,5.877025712694035,0.0
44.90044003295238,11.286033514044473,5.875811679535449,0.0
45.00044204223527,11.285902298862394,5.874600549505786,0.0
45.10044405151816,11.285771292556774,5.873392309167754,0.0
45.20044606080105,11.285640494333965,5.872186945175983,0.0
45.30044807008394,11.285509903405089,5.8709844442762105,0.0
45.40045007936683,11.285379518985998,5.869784793304447,0.0
45.500452088649716,11.285249340297232,5.868587979186165,0.0
45.600454097932605,11.285119366563983,5.867393988935499,0.0
45.700456107215494,11.284989597016056,5.866202809654457,0.0
45.80045811649838,11.284860030887831,5.865014428532115,0.0
45.90046012578127,11.284730667418229,5.863828832843865,0.0
46.00046213506416,11.284601505850672,5.862646009950629,0.0
46.10046414434705,11.284472545433047,5.861465947298107,0.0
46.20046615362994,11.28434378541767,5.860288632416017,0.0
46.30046816291283,11.284215225061255,5.859114052917365,0.0
46.40047017219572,11.284086863624868,5.857942196497699,0.0
46.50047218147861,11.283958700373905,5.856773050934388,0.0
46.600474190761496,11.283830734578048,5.855606604085899,0.0
46.700476200044385,11.283702965511235,5.854442843891091,0.0
46.800478209327274,11.283575392451626,5.853281758368501,0.0
46.90048021861016,11.283448014681566,5.852123335615667,0.0
47.00048222789305,11.283320831487558,5.850967563808414,0.0
47.10048423717594,11.283193842160223,5.849814431200201,0.0
47.20048624645883,11.283067045994276,5.848663926121427,0.0
47.30048825574172,11.282940442288483,5.847516036978769,0.0
47.40049026502461,11.28281403034564,5.846370752254538,0.0
47.5004922743075,11.282687809472536,5.8452280605060025,0.0
47.600494283590386,11.282561778979918,5.844087950364756,0.0
47.700496292873275,11.282435938182468,5.842950410536089,0.0
47.800498302156164,11.282310286398769,5.841815429798338,0.0
47.90050031143905,11.282184822951272,5.840682997002277,0.0
48.00050232072194,11.282059547166272,5.839553101070486,0.0
48.10050433000483,11.281934458373868,5.8384257309967555,0.0
48.20050633928772,11.281809555907948,5.8373008758454645,0.0
48.30050834857061,11.281684839106148,5.836178524751,0.0
48.4005103578535,11.281560307309828,5.835058666917144,0.0
48.50051236713639,11.28143595986404,5.8339412916165045,0.0
48.60051437641928,11.281311796117508,5.8328263881899325,0.0
48.700516385702166,11.281187815422589,5.831713946045941,0.0
48.800518394985055,11.281064017135252,5.830603954660139,0.0
48.900520404267944,11.28094040061505,5.829496403574682,0.0
49.00052241355083,11.280816965225089,5.828391282397698,0.0
49.10052442283372,11.280693710332008,5.8272885808027475,0.0
49.20052643211661,11.280570635305946,5.826188288528282,0.0
49.3005284413995,11.280447739520516,5.825090395377094,0.0
49.40053045068239,11.280325022352784,5.823994891215788,0.0
49.50053245996528,11.280202483183235,5.8229017659742635,0.0
49.60053446924817,11.280080121395756,5.821811009645176,0.0
49.700536478531056,11.279957936377604,5.820722612283433,0.0
49.800538487813945,11.279835927519384,5.819636564005668,0.0
49.900540497096834,11.279714094215024,5.818552854989752,0.0
50.00054250637972,11.279592435861746,5.817471475474278,0.0
50.10054451566261,11.279470951860048,5.81639241575807,0.0
50.2005465249455,11.279349641613678,5.815315666199689,0.0
50.30054853422839,11.279228504529602,5.814241217216951,0.0
50.40055054351128,11.279107540017995,5.813169059286448,0.0
50.50055255279417,11.278986747492203,5.812099182943058,0.0
50.60055456207706,11.278866126368728,5.811031578779486,0.0
50.70055657135995,11.278745676067203,5.809966237445796,0.0
50.800558580642836,11.27862539601037,5.808903149648941,0.0
50.900560589925725,11.278505285624052,5.807842306152319,0.0
51.000562599208614,11.278385344337138,5.806783697775302,0.0
51.1005646084915,11.278265571581557,5.805727315392801,0.0
51.20056661777439,11.278145966792252,5.804673149934814,0.0
51.30056862705728,11.278026529407166,5.803621192385998,0.0
51.40057063634017,11.277907258867216,5.80257143378522,0.0
51.50057264562306,11.277788154616271,5.801523865225128,0.0
51.60057465490595,11.277669216101131,5.800478477851735,0.0
51.70057666418884,11.277550442771508,5.799435262863987,0.0
51.800578673471726,11.277431834080001,5.7983942115133456,0.0
51.900580682754615,11.277313389482082,5.797355315103374,0.0
52.000582692037504,11.277195108436068,5.796318564989333,0.0
52.10058470132039,11.277076990403105,5.795283952577767,0.0
52.20058671060328,11.276959034847145,5.7942514693261025,0.0
52.30058871988617,11.276841241234932,5.793221106742251,0.0
52.40059072916906,11.276723609035972,5.79219285638422,0.0
52.50059273845195,11.276606137722526,5.791166709859715,0.0
52.60059474773484,11.27648882676958,5.790142658825754,0.0
52.70059675701773,11.276371675654827,5.789120694988288,0.0
52.80059876630062,11.276254683858658,5.7881008101018185,0.0
52.900600775583506,11.27613785086413,5.787082995969023,0.0
53.000602784866395,11.276021176156952,5.786067244440378,0.0
53.100604794149284,11.275904659225471,5.785053547413803,0.0
53.20060680343217,11.275788299560647,5.78404189683428,0.0
53.30060881271506,11.27567209665604,5.783032284693503,0.0
53.40061082199795,11.275556050007786,5.782024703029517,0.0
53.50061283128084,11.275440159114586,5.781019143926359,0.0
53.60061484056373,11.275324423477683,5.7800155995137175,0.0
53.70061684984662,11.275208842600845,5.779014061966565,0.0
53.80061885912951,11.27509341599035,5.778014523504838,0.0
53.900620868412396,11.274978143154966,5.7770169763930745,0.0
54.000622877695285,11.274863023605938,5.776021412940095,0.0
54.100624886978174,11.274748056856964,5.77502782549864,0.0
54.20062689626106,11.274633242424185,5.774036206465075,0.0
54.30062890554395,11.274518579826164,5.7730465482790265,0.0
54.40063091482684,11.274404068583872,5.772058843423078,0.0
54.50063292410973,11.27428970822067,5.7710730844224445,0.0
54.60063493339262,11.27417549826229,5.770089263844643,0.0
54.70063694267551,11.274061438236828,5.769107374299184,0.0
54.8006389519584,11.273947527674716,5.768127408437259,0.0
54.90064096124129,11.273833766108716,5.767149358951423,0.0
55.000642970524176,11.2737201530739,5.7661732185752985,0.0
55.100644979807065,11.27360668810763,5.765198980083252,0.0
55.200646989089954,11.273493370749556,5.764226636290109,0.0
55.30064899837284,11.273380200541583,5.763256180050847,0.0
55.40065100765573,11.27326717702787,5.762287604260299,0.0
55.50065301693862,11.273154299754808,5.761320901852859,0.0
55.60065502622151,11.273041568271006,5.760356065802194,0.0
55.7006570355044,11.272928982127278,5.759393089120951,0.0
55.80065904478729,11.272816540876626,5.758431964860478,0.0
55.90066105407018,11.272704244074228,5.757472686110529,0.0
56.000663063353066,11.27259209127742,5.7565152459989966,0.0
56.100665072635955,11.272480082045686,5.75555963769162,0.0
56.200667081918844,11.27236821594064,5.754605854391731,0.0
56.30066909120173,11.272256492526013,5.753653889339951,0.0
56.40067110048462,11.272144911367642,5.75270373581394,0.0
56.50067310976751,11.27203347203345,5.751755387128127,0.0
56.6006751190504,11.271922174093438,5.750808836633443,0.0
56.70067712833329,11.27181101711967,5.749864077717049,0.0
