Time,Mass,Radius,Lx
23.0,11.419806757177295,6.41,0.0
23.100002009282885,11.417506525138188,6.404108898088701,0.0
23.20000401856577,11.415223198302893,6.39825487242741,0.0
23.300006027848656,11.41295657376431,6.392437525141693,0.0
23.400008037131542,11.410706451957015,6.3866564643313986,0.0
23.500010046414427,11.40847263658768,6.3809113039559495,0.0
23.600012055697313,11.406254934567242,6.375201663722308,0.0
23.7000140649802,11.404053155944757,6.3695271689755355,0.0
23.800016074263084,11.40186711384291,6.363887450591887,0.0
23.90001808354597,11.399696624395114,6.358282144874357,0.0
24.000020092828855,11.397541506684169,6.352710893450638,0.0
24.10002210211174,11.395401582682414,6.34717334317339,0.0
24.200024111394626,11.393276677193358,6.341669146022788,0.0
24.30002612067751,11.39116661779472,6.33619795901128,0.0
24.400028129960397,11.389071234782863,6.3307594440904875,0.0
24.500030139243282,11.386990361118553,6.325353268060191,0.0
24.600032148526168,11.384923832374039,6.319979102479369,0.0
24.700034157809053,11.382871486681388,6.314636623579208,0.0
24.80003616709194,11.380833164682064,6.309325512178052,0.0
24.900038176374824,11.37880870947769,6.304045453598212,0.0
25.00004018565771,11.37679796658199,6.298796137584642,0.0
25.100042194940595,11.37480078387385,6.293577258225371,0.0
25.20004420422348,11.372817011551492,6.2883885138736755,0.0
25.300046213506366,11.370846502087712,6.283229607071977,0.0
25.400048222789252,11.36888911018616,6.278100244477345,0.0
25.500050232072137,11.366944692738633,6.2730001367886405,0.0
25.600052241355023,11.365013108783362,6.267928998675217,0.0
25.70005425063791,11.363094219464246,6.262886548707147,0.0
25.800056259920794,11.36118788799103,6.257872509286946,0.0
25.90005826920368,11.359293979600384,6.252886606582747,0.0
26.000060278486565,11.357412361517877,6.247928570462882,0.0
26.10006228776945,11.355542902920797,6.2429981344318595,0.0
26.200064297052336,11.353685474901821,6.238095035567666,0.0
26.30006630633522,11.3518399504335,6.233219014460415,0.0
26.400068315618107,11.350006204333532,6.228369815152249,0.0
26.500070324900992,11.348184113230811,6.223547185078491,0.0
26.600072334183878,11.346373555532242,6.2187508750100395,0.0
26.700074343466763,11.344574411390271,6.213980638996931,0.0
26.80007635274965,11.342786562671138,6.20923623431306,0.0
26.900078362032534,11.341009892923836,6.204517421402059,0.0
27.00008037131542,11.339244287349734,6.199823963824249,0.0
27.100082380598305,11.337489632772874,6.195155628204702,0.0
27.20008438988119,11.335745817610901,6.1905121841823245,0.0
27.300086399164076,11.334012731846633,6.185893404359998,0.0
27.400088408446962,11.332290267000232,6.181299064255695,0.0
27.500090417729847,11.330578316101988,6.1767289422546074,0.0
27.600092427012733,11.328876773665668,6.172182819562202,0.0
27.70009443629562,11.327185535662437,6.1676604801582275,0.0
27.800096445578504,11.325504499495343,6.163161710751615,0.0
27.90009845486139,11.323833563974329,6.158686300736305,0.0
28.000100464144275,11.322172629291776,6.154234042147905,0.0
28.10010247342716,11.320521596998564,6.149804729621231,0.0
28.200104482710046,11.318880369980622,6.1453981603486465,0.0
28.30010649199293,11.317248852435982,6.141014134039242,0.0
28.400108501275817,11.315626949852296,6.136652452878799,0.0
28.500110510558702,11.314014568984822,6.132312921490509,0.0
28.600112519841588,11.312411617834872,6.127995346896492,0.0
28.700114529124473,11.31081800562869,6.123699538480004,0.0
28.80011653840736,11.30923364279677,6.119425307948413,0.0
28.900118547690244,11.307658440953594,6.115172469296851,0.0
29.00012055697313,11.306092312877784,6.110940838772578,0.0
29.100122566256015,11.304535172492653,6.106730234840011,0.0
29.2001245755389,11.302986934847146,6.1025404781464,0.0
29.300126584821786,11.301447516097173,6.098371391488195,0.0
29.40012859410467,11.299916833487307,6.094222799777981,0.0
29.500130603387557,11.298394805332853,6.090094530012097,0.0
29.600132612670443,11.29688135100227,6.085986411238805,0.0
29.700134621953328,11.295376390899948,6.081898274527083,0.0
29.800136631236214,11.293879846449318,6.0778299529359785,0.0
29.9001386405191,11.292391640076298,6.073781281484543,0.0
30.000140649801985,11.290911695193063,6.069752097122295,0.0
30.10014265908487,11.289439936182138,6.065742238700258,0.0
30.200144668367756,11.28797628838079,6.061751546942503,0.0
30.30014667765064,11.286520678065733,6.057779864418203,0.0
30.400148686933527,11.285073032438127,6.053827035514235,0.0
30.500150696216412,11.283633279608868,6.04989290640823,0.0
30.600152705499298,11.282201348584145,6.045977325042129,0.0
30.700154714782183,11.280777169251307,6.04208014109623,0.0
30.80015672406507,11.279360672364962,6.038201205963672,0.0
30.900158733347954,11.277951789533374,6.03434037272539,0.0
31.00016074263084,11.276550453205092,6.030497496125525,0.0
31.100162751913725,11.27515659665585,6.026672432547237,0.0
31.20016476119661,11.273770153975704,6.0228650399889965,0.0
31.300166770479496,11.272391060056416,6.019075178041238,0.0
31.40016877976238,11.27101925057907,6.0153027078634675,0.0
31.500170789045267,11.269654662001921,6.0115474921617515,0.0
31.600172798328153,11.268297231548479,6.0078093951666105,0.0
31.700174807611038,11.266946897195792,6.004088282611269,0.0
31.800176816893924,11.26560359766297,6.000384021710325,0.0
31.90017882617681,11.264267272399907,5.996696481138759,0.0
32.000180835459695,11.262937861576212,5.9930255310113125,0.0
32.100182844742584,11.261615306070345,5.9893710428622295,0.0
32.20018485402547,11.26029954745895,5.985732889625323,0.0
32.30018686330836,11.25899052800638,5.982110945614416,0.0
32.40018887259125,11.257688190654422,5.978505086504082,0.0
32.50019088187414,11.256392479012186,5.974915189310728,0.0
32.60019289115703,11.255103337346208,5.971341132374018,0.0
32.70019490043992,11.253820710570698,5.967782795338559,0.0
32.80019690972281,11.252544544237988,5.96424005913595,0.0
32.900198919005696,11.251274784529135,5.960712805967091,0.0
33.000200928288585,11.250011378244698,5.957200919284821,0.0
33.100202937571474,11.248754272795681,5.953704283776819,0.0
33.20020494685436,11.247503416194625,5.9502227853487994,0.0
33.30020695613725,11.246258757046874,5.9467563111079915,0.0
33.40020896542014,11.24502024454198,5.943304749346886,0.0
33.50021097470303,11.243787828445262,5.939867989527247,0.0
33.60021298398592,11.242561459089522,5.936445922264397,0.0
33.70021499326881,11.24134108736689,5.933038439311744,0.0
33.8002170025517,11.240126664720824,5.9296454335455735,0.0
33.90021901183459,11.23891814313824,5.92626679895009,0.0
34.000221021117476,11.237715475141785,5.92290243060269,0.0
34.100223030400365,11.23651861378223,5.919552224659478,0.0
34.200225039683254,11.235327512631017,5.916216078341023,0.0
34.30022704896614,11.234142125772902,5.912893889918337,0.0
34.40022905824903,11.232962407798755,5.909585558699076,0.0
34.50023106753192,11.23178831379846,5.906290985013976,0.0
34.60023307681481,11.230619799353947,5.903010070203486,0.0
34.7002350860977,11.229456820532334,5.8997427166046315,0.0
34.80023709538059,11.228299333879194,5.896488827538075,0.0
34.90023910466348,11.227147296411927,5.893248307295384,0.0
35.000241113946366,11.226000665613245,5.8900210611265,0.0
35.100243123229255,11.224859399424773,5.88680699522741,0.0
35.200245132512144,11.223723456240739,5.883606016728001,0.0
35.30024714179503,11.222592794901793,5.8804180336801135,0.0
35.40024915107792,11.22146737468891,5.87724295504578,0.0
35.50025116036081,11.220347155317395,5.874080690685634,0.0
35.6002531696437,11.219232096931,5.870931151347522,0.0
35.70025517892659,11.218122160096124,5.867794248655272,0.0
35.80025718820948,11.217017305796112,5.86466989509765,0.0
35.90025919749237,11.21591749542565,5.861558004017457,0.0
36.00026120677526,11.214822690785248,5.858458489600846,0.0
36.100263216058146,11.213732854075811,5.855371266866737,0.0
36.200265225341035,11.21264794789331,5.85229625165646,0.0
36.300267234623924,11.211567935223513,5.849233360623501,0.0
36.40026924390681,11.210492779436839,5.846182511223436,0.0
36.5002712531897,11.209422444283252,5.8431436217039945,0.0
36.60027326247259,11.208356893887272,5.840116611095308,0.0
36.70027527175548,11.207296092743043,5.837101399200256,0.0
36.80027728103837,11.206240005709493,5.8340979065850025,0.0
36.90027929032126,11.205188598005565,5.831106054569647,0.0
37.00028129960415,11.20414183520552,5.828125765219024,0.0
37.100283308887036,11.203099683234324,5.82515696133364,0.0
37.200285318169925,11.202062108363098,5.822199566440739,0.0
37.300287327452814,11.201029077204643,5.819253504785509,0.0
37.4002893367357,11.200000556709039,5.816318701322414,0.0
37.50029134601859,11.198976514159309,5.8133950817066555,0.0
37.60029335530148,11.197956917167144,5.810482572285748,0.0
37.70029536458437,11.196941733668709,5.807581100091236,0.0
37.80029737386726,11.1959309319205,5.8046905928305215,0.0
37.90029938315015,11.194924480495278,5.801810978878814,0.0
38.00030139243304,11.19392234827805,5.798942187271196,0.0
38.10030340171593,11.192924504462127,5.796084147694794,0.0
38.200305410998816,11.19193091854523,5.793236790481087,0.0
38.300307420281705,11.190941560325667,5.7904000465982985,0.0
38.400309429564594,11.18995639989856,5.787573847643918,0.0
38.50031143884748,11.188975407652128,5.784758125837325,0.0
38.60031344813037,11.187998554264038,5.7819528140125005,0.0
38.70031545741326,11.187025810697795,5.779157845610873,0.0
38.80031746669615,11.1860571481992,5.776373154674246,0.0
38.90031947597904,11.185092538292855,5.773598675837828,0.0
39.00032148526193,11.184131952778719,5.770834344323369,0.0
39.10032349454482,11.18317536372872,5.768080095932383,0.0
39.200325503827706,11.182222743483415,5.765335867039475,0.0
39.300327513110595,11.181274064648697,5.76260159458576,0.0
39.400329522393484,11.180329300092563,5.759877216072373,0.0
39.50033153167637,11.179388422941908,5.757162669554065,0.0
39.60033354095926,11.17845140657939,5.754457893632896,0.0
39.70033555024215,11.177518224640322,5.7517628274520165,0.0
39.80033755952504,11.176588851009626,5.749077410689525,0.0
39.90033956880793,11.175663259818817,5.746401583552419,0.0
40.00034157809082,11.174741425443038,5.743735286770622,0.0
40.10034358737371,11.173823322498144,5.7410784615911155,0.0
40.2003455966566,11.172908925837813,5.738431049772109,0.0
40.300347605939486,11.171998210550717,5.7357929935773395,0.0
40.400349615222375,11.171091151957718,5.733164235770408,0.0
40.500351624505264,11.170187725609114,5.73054471960921,0.0
40.60035363378815,11.169287907281925,5.727934388840454,0.0
40.70035564307104,11.16839167297721,5.725333187694231,0.0
40.80035765235393,11.16749899891743,5.722741060878671,0.0
40.90035966163682,11.166609861543849,5.720157953574669,0.0
41.00036167091971,11.16572423751396,5.7175838114306785,0.0
41.1003636802026,11.164842103698964,5.715018580557585,0.0
41.20036568948549,11.16396343718128,5.712462207523636,0.0
41.300367698768376,11.16308821525208,5.709914639349446,0.0
41.400369708051265,11.162216415408869,5.7073758235030665,0.0
41.500371717334154,11.161348015353102,5.704845707895128,0.0
41.60037372661704,11.16048299298782,5.702324240874024,0.0
41.70037573589993,11.159621326415332,5.699811371221182,0.0
41.80037774518282,11.158762993934927,5.697307048146403,0.0
41.90037975446571,11.157907974040613,5.694811221283228,0.0
42.0003817637486,11.157056245418897,5.692323840684402,0.0
42.10038377303149,11.156207786946576,5.689844856817368,0.0
42.20038578231438,11.155362577688587,5.687374220559848,0.0
42.30038779159727,11.154520596895864,5.684911883195462,0.0
42.400389800880156,11.153681824003232,5.682457796409402,0.0
42.500391810163045,11.152846238627331,5.680011912284183,0.0
42.600393819445934,11.15201382056457,5.677574183295425,0.0
42.70039582872882,11.151184549789098,5.675144562307705,0.0
42.80039783801171,11.150358406450826,5.672723002570459,0.0
42.9003998472946,11.149535370873442,5.670309457713932,0.0
43.00040185657749,11.148715423552488,5.667903881745183,0.0
43.10040386586038,11.14789854515344,5.66550622904415,0.0
43.20040587514327,11.147084716509818,5.663116454359742,0.0
43.30040788442616,11.14627391862133,5.660734512806014,0.0
43.400409893709046,11.145466132652036,5.658360359858358,0.0
43.500411902991935,11.144661339928524,5.655993951349759,0.0
43.600413912274824,11.143859521938138,5.6536352434671056,0.0
43.70041592155771,11.143060660327205,5.651284192747526,0.0
43.8004179308406,11.142264736899293,5.648940756074786,0.0
43.90041994012349,11.1414717336135,5.646604890675736,0.0
44.00042194940638,11.140681632582753,5.644276554116777,0.0
44.10042395868927,11.13989441607214,5.641955704300411,0.0
44.20042596797216,11.139110066497256,5.639642299461788,0.0
44.30042797725505,11.13832856642258,5.637336298165344,0.0
44.40042998653794,11.13754989855986,5.635037659301441,0.0
44.500431995820826,11.136774045766533,5.632746342083063,0.0
44.600434005103715,11.13600099104416,5.630462306042576,0.0
44.700436014386604,11.135230717536874,5.628185511028472,0.0
44.80043802366949,11.134463208529862,5.6259159172022155,0.0
44.90044003295238,11.133698447447857,5.623653485035094,0.0
45.00044204223527,11.132936417853655,5.6213981753051065,0.0
45.10044405151816,11.13217710344664,5.619149949093903,0.0
45.20044606080105,11.13142048806135,5.616908767783757,0.0
45.30044807008394,11.130666555666037,5.614674593054576,0.0
45.40045007936683,11.12991529036126,5.612447386880933,0.0
45.500452088649716,11.129166676378492,5.610227111529161,0.0
45.600454097932605,11.128420698078747,5.608013729554463,0.0
45.700456107215494,11.127677339951221,5.605807203798067,0.0
45.80045811649838,11.126936586611953,5.603607497384406,0.0
45.90046012578127,11.126198422802497,5.601414573718333,0.0
46.00046213506416,11.125462833388625,5.599228396482383,0.0
46.10046414434705,11.12472980335903,5.597048929634055,0.0
46.20046615362994,11.123999317824053,5.594876137403123,0.0
46.30046816291283,11.123271362014428,5.592709984288993,0.0
46.40047017219572,11.122545921280041,5.590550435058082,0.0
46.50047218147861,11.121822981088702,5.588397454741234,0.0
46.600474190761496,11.121102527024929,5.5862510086311445,0.0
46.700476200044385,11.120384544788763,5.584111062279859,0.0
46.800478209327274,11.119669020194577,5.581977581496256,0.0
46.90048021861016,11.118955939169917,5.579850532343597,0.0
47.00048222789305,11.118245287754345,5.5777298811370635,0.0
47.10048423717594,11.117537052098303,5.575615594441372,0.0
47.20048624645883,11.116831218461991,5.573507639068369,0.0
47.30048825574172,11.116127773214258,5.571405982074701,0.0
47.40049026502461,11.115426702831497,5.569310590759461,0.0
47.5004922743075,11.114727993896576,5.567221432661908,0.0
47.600494283590386,11.114031633097758,5.565138475559189,0.0
47.700496292873275,11.113337607227649,5.563061687464087,0.0
47.800498302156164,11.112645903182152,5.5609910366228,0.0
47.90050031143905,11.111956507959437,5.558926491512756,0.0
48.00050232072194,11.111269408658924,5.556868020840424,0.0
48.10050433000483,11.110584592480276,5.554815593539196,0.0
48.20050633928772,11.109902046722402,5.552769178767232,0.0
48.30050834857061,11.10922175878248,5.550728745905391,0.0
48.4005103578535,11.108543716154985,5.548694264555152,0.0
48.50051236713639,11.107867906430727,5.546665704536552,0.0
48.60051437641928,11.107194317295905,5.544643035886172,0.0
48.700516385702166,11.106522936531178,5.542626228855137,0.0
48.800518394985055,11.105853752010729,5.540615253907122,0.0
48.900520404267944,11.10518675170136,5.538610081716408,0.0
49.00052241355083,11.104521923661586,5.536610683165936,0.0
49.10052442283372,11.10385925604074,5.534617029345398,0.0
49.20052643211661,11.103198737078099,5.532629091549345,0.0
49.3005284413995,11.102540355102002,5.530646841275312,0.0
49.40053045068239,11.101884098529,5.528670250221966,0.0
49.50053245996528,11.101229955862998,5.526699290287285,0.0
49.60053446924817,11.100577915694414,5.524733933566738,0.0
49.700536478531056,11.099927966699353,5.522774152351503,0.0
49.800538487813945,11.099280097638777,5.520819919126684,0.0
49.900540497096834,11.098634297357705,5.518871206569582,0.0
50.00054250637972,11.0979905547844,5.516927987547946,0.0
50.10054451566261,11.097348858929582,5.5149902351182725,0.0
50.2005465249455,11.096709198885636,5.513057922524098,0.0
50.30054853422839,11.096071563825848,5.511131023194344,0.0
50.40055054351128,11.095435943003636,5.509209510741648,0.0
50.50055255279417,11.094802325751784,5.507293358960725,0.0
50.60055456207706,11.094170701481705,5.505382541826752,0.0
50.70055657135995,11.093541059682693,5.503477033493766,0.0
50.800558580642836,11.092913389921195,5.5015768082930725,0.0
50.900560589925725,11.09228768184009,5.499681840731684,0.0
51.000562599208614,11.091663925157972,5.497792105490769,0.0
51.1005646084915,11.091042109668438,5.4959075774241075,0.0
51.20056661777439,11.090422225239397,5.4940282315565865,0.0
51.30056862705728,11.089804261812375,5.492154043082689,0.0
51.40057063634017,11.089188209401836,5.490284987365019,0.0
51.50057264562306,11.088574058094501,5.488421039932818,0.0
51.60057465490595,11.087961798048683,5.48656217648052,0.0
51.70057666418884,11.087351419493627,5.484708372866313,0.0
51.800578673471726,11.086742912728859,5.482859605110717,0.0
51.900580682754615,11.086136268123534,5.481015849395165,0.0
52.000582692037504,11.085531476115802,5.4791770820606285,0.0
52.10058470132039,11.084928527212181,5.477343279606224,0.0
52.20058671060328,11.084327411986923,5.475514418687853,0.0
52.30058871988617,11.083728121081403,5.473690476116857,0.0
52.40059072916906,11.08313064520351,5.471871428858686,0.0
52.50059273845195,11.08253497512704,5.47005725403156,0.0
52.60059474773484,11.081941101691093,5.468247928905178,0.0
52.70059675701773,11.081349015799498,5.466443430899423,0.0
52.80059876630062,11.080758708420214,5.464643737583074,0.0
52.900600775583506,11.080170170584761,5.462848826672547,0.0
53.000602784866395,11.079583393387644,5.4610586760306346,0.0
53.100604794149284,11.078998367985788,5.459273263665269,0.0
53.20060680343217,11.078415085597987,5.457492567728301,0.0
53.30060881271506,11.077833537504338,5.455716566514269,0.0
53.40061082199795,11.077253715045705,5.453945238459216,0.0
53.50061283128084,11.076675609623175,5.452178562139483,0.0
53.60061484056373,11.076099212697518,5.450416516270538,0.0
53.70061684984662,11.075524515788663,5.448659079705811,0.0
53.80061885912951,11.074951510475177,5.446906231435545,0.0
53.900620868412396,11.07438018839374,5.445157950585637,0.0
54.000622877695285,11.073810541238633,5.443414216416528,0.0
54.100624886978174,11.073242560761239,5.441675008322074,0.0
54.20062689626106,11.072676238769533,5.439940305828435,0.0
54.30062890554395,11.072111567127592,5.438210088592989,0.0
54.40063091482684,11.071548537755099,5.43648433640324,0.0
54.50063292410973,11.070987142626858,5.434763029175741,0.0
54.60063493339262,11.07042737377232,5.433046146955045,0.0
54.70063694267551,11.069869223275099,5.4313336699126324,0.0
54.8006389519584,11.069312683272505,5.429625578345888,0.0
54.90064096124129,11.068757745955082,5.427921852677052,0.0
55.000642970524176,11.068204403566142,5.426222473452215,0.0
55.100644979807065,11.067652648401312,5.424527421340297,0.0
55.200646989089954,11.067102472808083,5.422836677132045,0.0
55.30064899837284,11.066553869185363,5.421150221739055,0.0
55.40065100765573,11.066006829983039,5.419468036192776,0.0
55.50065301693862,11.065461347701532,5.417790101643545,0.0
55.60065502622151,11.064917414891376,5.41611639935963,0.0
55.7006570355044,11.06437502415278,5.414446910726268,0.0
55.80065904478729,11.063834168135207,5.41278161724473,0.0
55.90066105407018,11.063294839536962,5.411120500531385,0.0
56.000663063353066,11.062757031104766,5.409463542316773,0.0
56.100665072635955,11.062220735633357,5.407810724444698,0.0
56.200667081918844,11.061685945965072,5.406162028871309,0.0
56.30066909120173,11.061152654989458,5.404517437664218,0.0
56.40067110048462,11.060620855642862,5.402876933001598,0.0
56.50067310976751,11.060090540908043,5.401240497171306,0.0
56.6006751190504,11.059561703813783,5.399608112570018,0.0
56.70067712833329,11.0590343374345,5.397979761702366,0.0
