Time,Mass,Radius,Lx
23.0,68.9970542082866,10.27,1.3e+30
33.0,68.97948615654342,10.2683448905908,2.6254430769169112e+29
43.0,68.97471289335078,10.267895168415132,8.125000000000072e+28
53.0,68.97211280486967,10.267650191269658,7.426368236754493e+28
63.0,68.969700666288,10.267422919501652,6.894438694426062e+28
73.0,68.96743575183795,10.267209516539502,6.471228435906223e+28
83.0,68.96529048104902,10.267007384174534,6.123675431864401e+28
93.0,68.9632451086134,10.266814662313568,5.831338311530708e+28
103.0,68.96128489957485,10.266629962864894,5.580794683491194e+28
113.0,68.9593984978033,10.266452216039209,5.3628105282020245e+28
123.0,68.9575769226689,10.26628057583072,5.17079246256987e+28
133.0,68.95581292068363,10.26611435893831,4.999887250044112e+28
143.0,68.95410052933337,10.265953003676252,4.846430887058217e+28
153.0,68.95243477371346,10.265796041395744,4.707597256923129e+28
163.0,68.95081144952202,10.265643076041833,4.581166083794146e+28
173.0,68.9492269640566,10.265493769174544,4.465365033814804e+28
183.0,68.9476782172663,10.265347828763453,4.358759462810436e+28
193.0,68.94616251113989,10.26520500065165,4.260173679432677e+28
203.0,68.94467747956713,10.26506506194837,4.168633588358353e+28
213.0,68.94322103327097,10.26492781584139,4.0833241655996765e+28
223.0,68.94179131601965,10.264793087472022,4.003557430124117e+28
233.0,68.94038666940813,10.264660720617403,3.928747977000493e+28
243.0,68.93900560423752,10.264530574994321,3.8583940460351e+28
253.0,68.93764677703692,10.264402524047494,3.7920627020956535e+28
263.0,68.93630897063761,10.264276453119589,3.729378110248499e+28
273.0,68.93499107797365,10.264152257925184,3.6700121686874417e+28
283.0,68.93369208847457,10.264029843268924,3.613676958017682e+28
293.0,68.93241107655912,10.263909121961586,3.5601186041825752e+28
303.0,68.93114719184503,10.263790013897816,3.509112252060391e+28
313.0,68.92989965077116,10.263672445266915,3.4604579193734174e+28
323.0,68.92866772938967,10.26355634787383,3.413977054036594e+28
333.0,68.92745075713381,10.263441658552084,3.3695096578945346e+28
343.0,68.92624811140408,10.263328318653752,3.3269118697439627e+28
353.0,68.92505921284467,10.263216273604517,3.286053923273607e+28
363.0,68.92388352120516,10.263105472513814,3.2468184129650017e+28
373.0,68.92272053170082,10.262995867831975,3.2090988144421355e+28
383.0,68.92156977179992,10.262887415047578,3.172798216220018e+28
393.0,68.92043079837795,10.262780072419373,3.1378282280030335e+28
403.0,68.91930319518866,10.262673800738051,3.10410803715654e+28
413.0,68.91818657060985,10.262568563113893,3.0715635901170065e+28
423.0,68.91708055562785,10.262464324786901,3.0401268796158984e+28
433.0,68.91598480203072,10.2623610529566,3.0097353218967007e+28
443.0,68.91489898078397,10.26225871662902,2.9803312107757257e+28
453.0,68.91382278056689,10.262157286478834,2.951861237568172e+28
463.0,68.91275590645022,10.262056734724773,2.924276067673974e+28
473.0,68.91169807869896,10.261957035016858,2.897529966073044e+28
483.0,68.91064903168599,10.261858162334066,2.8715804651790665e+28
493.0,68.9096085129041,10.261760092891256,2.8463880694941838e+28
503.0,68.90857628206587,10.26166280405438,2.821915992332692e+28
513.0,68.9075521102819,10.261566274263071,2.7981299205711427e+28
523.0,68.90653577930915,10.261470482959835,2.7749978039597874e+28
533.0,68.90552708086231,10.261375410525185,2.752489666016021e+28
543.0,68.90452581598166,10.261281038218089,2.730577433930342e+28
553.0,68.90353179445202,10.261187348121238,2.709234785262432e+28
563.0,68.90254483426769,10.261094323090642,2.688437009499774e+28
573.0,68.90156476113899,10.26100194670915,2.6681608828024535e+28
583.0,68.90059140803662,10.260910203243519,2.648384554472521e+28
593.0,68.89962461477016,10.260819077604719,2.6290874438703195e+28
603.0,68.89866422759779,10.26072855531116,2.6102501466583766e+28
613.0,68.89771009886434,10.260638622454605,2.5918543493897874e+28
623.0,68.89676208666519,10.260549265668507,2.573882751575808e+28
633.0,68.89582005453387,10.260460472098574,2.5563189944694234e+28
643.0,68.89488387115124,10.260372229375381,2.5391475958902273e+28
653.0,68.89395341007449,10.260284525588844,2.522353890493091e+28
663.0,68.89302854948438,10.260197349264402,2.5059239749503273e+28
673.0,68.89210917194913,10.260110689340781,2.4898446575758708e+28
683.0,68.89119516420371,10.260024535149206,2.474103411971505e+28
693.0,68.89028641694328,10.259938876393933,2.458688334320379e+28
703.0,68.88938282462976,10.259853703134045,2.44358810399283e+28
713.0,68.88848428531038,10.259769005766334,2.4287919471645745e+28
723.0,68.88759070044739,10.259684775009292,2.4142896031782987e+28
733.0,68.88670197475817,10.259601001888022,2.4000712934070193e+28
743.0,68.88581801606483,10.259517677720085,2.3861276924018707e+28
753.0,68.88493873515272,10.259434794102166,2.3724499011284936e+28
763.0,68.88406404563713,10.259352342897527,2.359029422115335e+28
773.0,68.88319386383776,10.259270316224164,2.3458581363542326e+28
783.0,68.88232810866016,10.259188706443656,2.332928281808844e+28
793.0,68.88146670148393,10.259107506150626,2.3202324334000776e+28
803.0,68.88060956605705,10.25902670816279,2.3077634843498247e+28
813.0,68.87975662839597,10.258946305511543,2.2955146287751747e+28
823.0,68.87890781669113,10.25886629143306,2.2834793454350823e+28
833.0,68.87806306121747,10.258786659359867,2.2716513825402087e+28
843.0,68.8772222942497,10.258707402912856,2.260024743544564e+28
853.0,68.87638544998191,10.25862851589372,2.2485936738446955e+28
863.0,68.87555246445136,10.258549992277773,2.2373526483185693e+28
873.0,68.87472327546615,10.25847182620712,2.2262963596420952e+28
883.0,68.87389782253653,10.258394011984217,2.215419707326484e+28
893.0,68.87307604680953,10.258316544065684,2.20471778742436e+28
903.0,68.87225789100692,10.258239417056476,2.1941858828568587e+28
913.0,68.87144329936613,10.25816262570432,2.1838194543178387e+28
923.0,68.87063221758402,10.25808616489441,2.17361413171487e+28
933.0,68.86982459276324,10.258010029644357,2.163565706109901e+28
943.0,68.8690203733613,10.257934215099393,2.1536701221254196e+28
953.0,68.86821950914178,10.257858716527775,2.1439234707846077e+28
963.0,68.86742195112801,10.257783529316422,2.1343219827564263e+28
973.0,68.86662765155864,10.257708648966727,2.124862021978793e+28
983.0,68.8658365638454,10.25763407109058,2.1155400796350374e+28
993.0,68.86504864253264,10.257559791406562,2.106352768460707e+28
1003.0,68.86426425414801,10.257485844472294,2.090081135351165e+28
1013.0,68.86348905193613,10.25741276324568,2.057564507998924e+28
1023.0,68.86272484138796,10.257340717948923,2.0258657787155107e+28
1033.0,68.86197136103235,10.257269683944555,1.9949566780668547e+28
1043.0,68.86122835807865,10.257199637412905,1.9648101746444167e+28
1053.0,68.86049558804847,10.257130555317394,1.9354004096365916e+28
1063.0,68.85977281442636,10.257062415371633,1.90670263543932e+28
1073.0,68.85905980832837,10.256995196008209,1.8786931580213176e+28
1083.0,68.8583563481872,10.25692887634902,1.851349282781836e+28
1093.0,68.8576622194533,10.256863436177127,1.824649263659377e+28
1103.0,68.85697721431065,10.256798855909974,1.7985722552685233e+28
1113.0,68.85630113140657,10.25673511657394,1.7730982678592005e+28
1123.0,68.85563377559471,10.25667219978013,1.748208124908331e+28
1133.0,68.8549749576904,10.256610087701326,1.723883423168225e+28
1143.0,68.85432449423772,10.256548763050047,1.700106495009184e+28
1153.0,68.85368220728765,10.25648820905765,1.6768603729058693e+28
1163.0,68.85304792418661,10.25642840945441,1.6541287559280541e+28
1173.0,68.85242147737492,10.256369348450532,1.6318959781065499e+28
1183.0,68.8518027041945,10.256311010718044,1.6101469785544454e+28
1193.0,68.85119144670541,10.2562533813735,1.588867273232399e+28
1203.0,68.85058755151083,10.25619644596151,1.5680429282546348e+28
1213.0,68.84999086958973,10.256140190438966,1.5476605346395964e+28
1223.0,68.84940125613723,10.256084601159996,1.5277071844159233e+28
1233.0,68.84881857041188,10.256029664861597,1.5081704480006252e+28
1243.0,68.84824267558977,10.255975368649874,1.4890383527720523e+28
1253.0,68.84767343862495,10.255921699986898,1.4702993627655415e+28
1263.0,68.84711073011589,10.25586864667812,1.4519423594245204e+28
1273.0,68.84655442417768,10.255816196860344,1.433956623344352e+28
1283.0,68.84600439831975,10.25576433899019,1.41633181695041e+28
1293.0,68.84546053332859,10.255713061833058,1.3990579680557288e+28
1303.0,68.8449227131556,10.255662354452555,1.3821254542471741e+28
1313.0,68.84439082480942,10.255612206200357,1.3655249880524102e+28
1323.0,68.84386475825288,10.255562606706494,1.3492476028430196e+28
1333.0,68.84334440630403,10.255513545870036,1.333284639432007e+28
1343.0,68.84282966454126,10.25546501385014,1.3176277333265775e+28
1353.0,68.8423204312123,10.255417001057493,1.3022688025995552e+28
1363.0,68.84181660714678,10.25536949814606,1.2872000363451093e+28
1373.0,68.84131809567234,10.255322496005181,1.272413883686598e+28
1383.0,68.84082480253399,10.255275985751995,1.257903043306326e+28
1393.0,68.84033663581673,10.255229958724115,1.2436604534688825e+28
1403.0,68.83985350587109,10.255184406472646,1.2296792825114366e+28
1413.0,68.8393753252416,10.255139320755418,1.2159529197759997e+28
1423.0,68.838902008598,10.255094693530529,1.2024749669601522e+28
1433.0,68.83843347266904,10.255050516950089,1.1892392298641452e+28
1443.0,68.83796963617887,10.255006783354238,1.1762397105136008e+28
1453.0,68.83751041978573,10.254963485265366,1.1634705996382474e+28
1463.0,68.83705574602297,10.254920615382554,1.1509262694882854e+28
1473.0,68.83660553924227,10.25487816657623,1.1386012669710393e+28
1483.0,68.83615972555896,10.25483613188301,1.1264903070915544e+28
1493.0,68.83571823279925,10.254794504500733,1.114588266681745e+28
1503.0,68.83528099044955,10.25475327778368,1.102890178403556e+28
1513.0,68.83484792960742,10.254712445237956,1.0913912250124469e+28
1523.0,68.83441898293447,10.254672000517052,1.0800867338682597e+28
1533.0,68.83399408461078,10.254631937417548,1.0689721716812628e+28
1543.0,68.83357317029103,10.254592249874985,1.058043139481841e+28
1553.0,68.83315617706218,10.25455293195987,1.0472953678029298e+28
1563.0,68.8327430434025,10.25451397787382,1.036724712064904e+28
1573.0,68.83233370914225,10.254475381945861,1.0263271481531739e+28
1583.0,68.83192811542546,10.254437138628816,1.0160987681792809e+28
1593.0,68.83152620467324,10.254399242495865,1.0060357764167797e+28
1603.0,68.83112792054818,10.254361688237164,9.961344854036515e+27
1613.0,68.8307332079201,10.254324470656652,9.863913122034388e+27
1623.0,68.83034201283279,10.254287584668885,9.768027748177005e+27
1633.0,68.82995428247199,10.254251025296043,9.67365488742779e+27
1643.0,68.82956996513441,10.254214787664994,9.580761636642259e+27
1653.0,68.82918901019772,10.254178867004477,9.489316002825918e+27
1663.0,68.8288113680916,10.25414325864237,9.399286872645987e+27
1673.0,68.8284369902697,10.254107958003047,9.310643983140233e+27
1683.0,68.8280658291824,10.254072960604816,9.223357893569133e+27
1693.0,68.82769783825076,10.254038262057458,9.137399958360179e+27
1703.0,68.8273329718409,10.254003858059816,9.05274230109589e+27
1713.0,68.82697118523956,10.253969744397493,8.96935778949935e+27
1723.0,68.82661243463014,10.253935916940591,8.887220011373481e+27
1733.0,68.82625667706971,10.253902371641553,8.806303251452434e+27
1743.0,68.82590387046666,10.253869104533047,8.726582469125438e+27
1753.0,68.82555397355902,10.253836111725926,8.648033276995488e+27
1763.0,68.8252069458935,10.253803389407253,8.570631920237025e+27
1773.0,68.82486274780511,10.25377093383839,8.49435525671848e+27
1783.0,68.8245213403975,10.253738741353125,8.419180737857249e+27
1793.0,68.82418268552382,10.253706808355892,8.345086390176169e+27
1803.0,68.82384674576821,10.253675131320007,8.272050797532034e+27
1813.0,68.82351348442776,10.253643706785981,8.200053083988135e+27
1823.0,68.82318286549518,10.253612531359881,8.129072897304038e+27
1833.0,68.82285485364179,10.25358160171173,8.059090393017164e+27
1843.0,68.82252941420114,10.25355091457396,7.990086219091827e+27
1853.0,68.82220651315309,10.253520466739912,7.922041501112572e+27
1863.0,68.8218861171083,10.253490255062385,7.854937827999701e+27
1873.0,68.82156819329329,10.253460276452206,7.788757238225886e+27
1883.0,68.82125270953578,10.253430527876874,7.723482206513706e+27
1893.0,68.82093963425059,10.253401006359216,7.659095630994922e+27
1903.0,68.82062893642586,10.253371708976086,7.595580820813075e+27
1913.0,68.82032058560971,10.253342632857121,7.532921484151906e+27
1923.0,68.82001455189722,10.253313775183505,7.471101716672822e+27
1933.0,68.81971080591788,10.253285133186784,7.410105990345382e+27
1943.0,68.81940931882326,10.253256704147715,7.349919142655515e+27
1953.0,68.81911006227517,10.253228485395137,7.290526366176811e+27
1963.0,68.818813008434,10.253200474304883,7.231913198490886e+27
1973.0,68.81851812994752,10.253172668298717,7.174065512443448e+27
1983.0,68.81822539993986,10.253145064843304,7.116969506723222e+27
1993.0,68.81793479200094,10.2531176614492,7.060611696751503e+27
2003.0,68.817646280176,10.253090455669888,7.004978905870561e+27
2013.0,68.81735983895565,10.253063445100807,6.9500582568197e+27
2023.0,68.81707544326594,10.253036627378453,6.895837163488174e+27
2033.0,68.81679306845885,10.253010000179456,6.842303322934677e+27
2043.0,68.81651269030304,10.252983561219724,6.78944470766351e+27
2053.0,68.81623428497475,10.25295730825357,6.737249558147974e+27
2063.0,68.81595782904905,10.252931239072906,6.685706375591914e+27
2073.0,68.81568329949121,10.252905351506415,6.634803914920715e+27
2083.0,68.81541067364837,10.252879643418773,6.584531177993409e+27
2093.0,68.81513992924144,10.252854112709882,6.534877407027916e+27
2103.0,68.81487104435715,10.252828757314127,6.485832078231711e+27
2113.0,68.81460399744032,10.252803575199637,6.437384895630586e+27
2123.0,68.81433876728637,10.252778564367594,6.389525785088442e+27
2133.0,68.81407533303403,10.252753722851526,6.342244888511314e+27
2143.0,68.8138136741581,10.252729048716647,6.295532558229129e+27
2153.0,68.8135537704626,10.252704540059197,6.24937935154897e+27
2163.0,68.81329560207394,10.252680195005794,6.203776025473794e+27
2173.0,68.81303914943426,10.252656011712828,6.158713531580889e+27
2183.0,68.81278439329512,10.252631988365842,6.114183011054509e+27
2193.0,68.81253131471107,10.252608123178941,6.070175789867359e+27
2203.0,68.8122798950336,10.252584414394216,6.026683374105825e+27
2213.0,68.81203011590515,10.252560860281184,5.983697445434027e+27
2223.0,68.81178195925325,10.252537459136226,5.941209856691981e+27
2233.0,68.8115354072849,10.252514209282072,5.899212627623287e+27
2243.0,68.81129044248091,10.252491109067256,5.857697940728021e+27
2253.0,68.8110470475906,10.252468156865618,5.816658137236578e+27
2263.0,68.81080520562645,10.252445351075803,5.776085713200457e+27
2273.0,68.81056489985893,10.252422690120774,5.735973315696062e+27
2283.0,68.8103261138115,10.252400172447341,5.696313739137784e+27
2293.0,68.81008883125568,10.252377796525693,5.65709992169678e+27
2303.0,68.80985303620628,10.252355560848946,5.618324941821917e+27
2313.0,68.80961871291665,10.252333463932708,5.579982014859597e+27
2323.0,68.80938584587416,10.25231150431464,5.5420644897692e+27
2333.0,68.80915441979572,10.252289680554036,5.504565845931068e+27
2343.0,68.80892441962338,10.252267991231417,5.467479690044014e+27
2353.0,68.80869583052014,10.252246434948123,5.430799753109507e+27
2363.0,68.8084686378657,10.252225010325924,5.394519887499714e+27
2373.0,68.80824282725247,10.25220371600664,5.358634064106775e+27
2383.0,68.80801838448154,10.252182550651757,5.323136369570685e+27
2393.0,68.8077952955588,10.252161512942067,5.288021003583316e+27
2403.0,68.80757354669119,10.25214060157731,5.253282276266181e+27
2413.0,68.8073531242829,10.252119815275819,5.218914605619628e+27
2423.0,68.80713401493183,10.252099152774191,5.184912515041214e+27
2433.0,68.80691620542603,10.252078612826937,5.151270630911126e+27
2443.0,68.80669968274019,10.252058194206166,5.117983680242569e+27
2453.0,68.80648443403226,10.25203789570126,5.085046488395105e+27
2463.0,68.80627044664017,10.252017716118566,5.052453976849009e+27
2473.0,68.80605770807857,10.251997654281087,5.020201161038791e+27
2483.0,68.80584620603565,10.251977709028184,4.98828314824405e+27
2493.0,68.80563592837005,10.251957879215283,4.956695135535962e+27
2503.0,68.80542686310783,10.251938163713593,4.925432407777659e+27
2513.0,68.80521899843949,10.251918561409822,4.8944903356769395e+27
2523.0,68.80501232271706,10.251899071205907,4.863864373889693e+27
2533.0,68.8048068244513,10.251879692018738,4.833550059172542e+27
2543.0,68.80460249230889,10.251860422779913,4.803543008583241e+27
2553.0,68.80439931510968,10.251841262435459,4.773838917727393e+27
2563.0,68.80419728182409,10.2518222099456,4.7444335590501514e+27
2573.0,68.80399638157047,10.251803264284504,4.7153227801715404e+27
2583.0,68.80379660361257,10.251784424440043,4.686502502264155e+27
2593.0,68.80359793735698,10.251765689413553,4.657968718471975e+27
2603.0,68.80340037235078,10.251747058219614,4.629717492369114e+27
2613.0,68.80320389827908,10.251728529885815,4.601744956457332e+27
2623.0,68.80300850496268,10.251710103452538,4.574047310701211e+27
2633.0,68.8028141823558,10.251691777972741,4.546620821099889e+27
2643.0,68.80262092054384,10.251673552511745,4.51946181829432e+27
2653.0,68.80242870974114,10.251655426147023,4.4925666962090457e+27
2663.0,68.80223754028883,10.251637397968004,4.4659319107274855e+27
2673.0,68.80204740265276,10.251619467075875,4.439553978399809e+27
2683.0,68.80185828742137,10.251601632583373,4.4134294751824675e+27
2693.0,68.8016701853037,10.251583893614605,4.3875550352084826e+27
2703.0,68.80148308712742,10.251566249304862,4.361927349587651e+27
2713.0,68.80129698383683,10.251548698800425,4.3365431652358174e+27
2723.0,68.80111186649098,10.251531241258398,4.3113992837324027e+27
2733.0,68.80092772626183,10.251513875846522,4.28649256020542e+27
2743.0,68.80074455443236,10.251496601743005,4.2618199022432046e+27
2753.0,68.8005623423948,10.251479418136357,4.2373782688321333e+27
2763.0,68.80038108164888,10.251462324225216,4.213164669319616e+27
2773.0,68.8002007638001,10.251445319218192,4.1891761624016685e+27
2783.0,68.80002138055805,10.251428402333708,4.165409855134403e+27
2793.0,68.79984292373469,10.251411572799835,4.1418629019687787e+27
2803.0,68.79966538524279,10.251394829854151,4.118532503807997e+27
2813.0,68.79948875709432,10.251378172743577,4.095415907086919e+27
2823.0,68.79931303139887,10.251361600724245,4.072510402872924e+27
2833.0,68.7991382003621,10.251345113061337,4.0498133259876243e+27
2843.0,68.79896425628426,10.251328709028954,4.0273220541488994e+27
2853.0,68.79879119155876,10.251312387909977,4.0050340071326904e+27
2863.0,68.79861899867062,10.251296148995923,3.982946645954044e+27
2873.0,68.79844767019512,10.25127999158682,3.961057472066896e+27
2883.0,68.79827719879638,10.25126391499107,3.939364026582101e+27
2893.0,68.79810757722602,10.251247918525317,3.917863889503228e+27
2903.0,68.79793879832178,10.251232001514332,3.896554678979668e+27
2913.0,68.79777085500622,10.251216163290875,3.8754340505765916e+27
2923.0,68.79760374028545,10.251200403195586,3.8544996965613276e+27
2933.0,68.79743744724783,10.251184720576857,3.8337493452057357e+27
2943.0,68.79727196906272,10.251169114790713,3.8131807601041674e+27
2953.0,68.79710729897931,10.25115358520071,3.792791739506602e+27
2963.0,68.79694343032537,10.251138131177804,3.7725801156665846e+27
2973.0,68.79678035650609,10.251122752100258,3.7525437542035844e+27
2983.0,68.79661807100292,10.251107447353514,3.732680553479397e+27
2993.0,68.79645656737245,10.251092216330104,3.7129884439882546e+27
3003.0,68.79629583924526,10.251077058429535,3.6934653877602815e+27
3013.0,68.7961358803249,10.251061973058189,3.674109377777966e+27
3023.0,68.79597668438673,10.25104695962922,3.654918437405324e+27
3033.0,68.79581824527692,10.251032017562453,3.635890619829437e+27
3043.0,68.79566055691137,10.251017146284292,3.617024007514053e+27
3053.0,68.79550361327478,10.251002345227622,3.5983167116649533e+27
