Time,Mass,Radius,Lx
23.0,6.728688454232868,8.74,1.3000000000000013e+30
23.1,6.727284085581988,8.7342808634703,1.2938464140484582e+30
23.200000000000003,6.7258886271788425,8.728592950348668,1.2877483494470542e+30
23.300000000000004,6.724501983483773,8.722935956041143,1.2817050691574034e+30
23.400000000000006,6.723124060390626,8.717309580209301,1.2757158490325027e+30
23.500000000000007,6.7217547651992,8.711713526693085,1.269779977537365e+30
23.60000000000001,6.720394006588329,8.70614750343533,1.2638967554768648e+30
23.70000000000001,6.719041694589598,8.700611222407995,1.2580654957305787e+30
23.80000000000001,6.717697740561665,8.69510439953999,1.2522855229944139e+30
23.900000000000013,6.716362057165178,8.689626754646607,1.2465561735288236e+30
24.000000000000014,6.715034558338268,8.6841780113605,1.2408767949134135e+30
24.100000000000016,6.713715159272607,8.678757897064159,1.2352467458077523e+30
24.200000000000017,6.712403776390006,8.673366142823847,1.2296653957182031e+30
24.30000000000002,6.711100327319546,8.668002483324981,1.224132124770602e+30
24.40000000000002,6.709804730875234,8.662666656808893,1.218646323488611e+30
24.50000000000002,6.708516907034155,8.657358405010951,1.2132073925775848e+30
24.600000000000023,6.707236776915111,8.652077473099995,1.2078147427137893e+30
24.700000000000024,6.705964262757748,8.646823609619082,1.2024677943388182e+30
24.800000000000026,6.704699287902141,8.641596566427447,1.1971659774590621e+30
24.900000000000027,6.703441776768833,8.636396098643749,1.1919087314500831e+30
25.00000000000003,6.702191654839312,8.63122196459044,1.1866955048657568e+30
25.10000000000003,6.700948848636922,8.62607392573936,1.1815257552520472e+30
25.20000000000003,6.699713285708192,8.620951746658433,1.1763989489652839e+30
25.300000000000033,6.698484894604566,8.61585519495947,1.1713145609948152e+30
25.400000000000034,6.6972636048645375,8.610784041247076,1.1662720747899155e+30
25.500000000000036,6.696049346996168,8.605738059068583,1.1612709820908277e+30
25.600000000000037,6.694842052459982,8.600717024865032,1.1563107827638271e+30
25.70000000000004,6.693641653652227,8.595720717923138,1.1513909846401954e+30
25.80000000000004,6.692448083888499,8.590748920328263,1.1465111033589971e+30
25.90000000000004,6.691261277387711,8.585801416918299,1.1416706622135539e+30
26.000000000000043,6.690081169256399,8.580877995238543,1.1368691920015171e+30
26.100000000000044,6.68890769547337,8.57597844549741,1.1321062308784405e+30
26.200000000000045,6.687740792874664,8.571102560523112,1.1273813242147565e+30
26.300000000000047,6.686580399138838,8.566250135721129,1.1226940244560673e+30
26.40000000000005,6.685426452772551,8.56142096903259,1.1180438909866591e+30
26.50000000000005,6.684278893096457,8.556614860893433,1.113430489996155e+30
26.60000000000005,6.683137660231386,8.551831614194398,1.1088533943492211e+30
26.700000000000053,6.682002695084811,8.547071034241803,1.1043121834582475e+30
26.800000000000054,6.680873939337593,8.542332928719091,1.0998064431589215e+30
26.900000000000055,6.679751335431002,8.537617107649112,1.095335765588621e+30
27.000000000000057,6.678634826553998,8.532923383357167,1.0908997490675509e+30
27.10000000000006,6.677524356630779,8.528251570434755,1.0864979979825511e+30
27.20000000000006,6.676419870308569,8.523601485704008,1.0821301226735091e+30
27.30000000000006,6.675321312945666,8.51897294818285,1.0777957393223063e+30
27.400000000000063,6.674228630599722,8.514365779050774,1.0734944698442329e+30
27.500000000000064,6.6731417700162625,8.509779801615311,1.0692259417818103e+30
27.600000000000065,6.672060678617434,8.505214841279134,1.064989788200956e+30
27.700000000000067,6.670985304490978,8.50067072550776,1.0607856475894334e+30
27.800000000000068,6.669915596379419,8.496147283797907,1.0566131637575259e+30
27.90000000000007,6.668851503669471,8.4916443476464,1.0524719857408808e+30
28.00000000000007,6.667792976381651,8.487161750519697,1.048361767705468e+30
28.100000000000072,6.6667399651600965,8.48269932782397,1.0442821688545975e+30
28.200000000000074,6.665692421262584,8.478256916875758,1.0402328533379475e+30
28.300000000000075,6.664650296550738,8.473834356873125,1.0362134901625497e+30
28.400000000000077,6.663613543480435,8.469431488867416,1.032223753105686e+30
28.500000000000078,6.662582115092389,8.465048155735483,1.0282633206296451e+30
28.60000000000008,6.6615559650029255,8.460684202152436,1.0243318757982971e+30
28.70000000000008,6.660535047394923,8.456339474564913,1.0204291061954371e+30
28.800000000000082,6.659519317008936,8.452013821164808,1.0165547038448585e+30
28.900000000000084,6.658508729134485,8.447707091863496,1.0127083651321089e+30
29.000000000000085,6.65750323960151,8.44341913826652,1.0088897907278915e+30
29.100000000000087,6.656502804771994,8.439149813648752,1.0050986855130705e+30
29.200000000000088,6.655507381531731,8.43489897292996,1.0013347585052398e+30
29.30000000000009,6.6545169272822635,8.430666472650863,9.975977227868194e+29
29.40000000000009,6.653531399932962,8.426452170949586,9.938872954346423e+29
29.500000000000092,6.652550757893257,8.422255927538542,9.902031974509956e+29
29.600000000000094,6.6515749600650125,8.418077603681716,9.865451536960799e+29
29.700000000000095,6.650603965835044,8.413917062172377,9.82912892821855e+29
29.800000000000097,6.649637735067776,8.40977416731115,9.793061472072391e+29
29.900000000000098,6.64867622809803,8.405648784884505,9.757246528946272e+29
30.0000000000001,6.647719405723953,8.401540782143597,9.721681495276983e+29
30.1000000000001,6.646767229200063,8.397450027783501,9.68636380290483e+29
30.200000000000102,6.64581966023044,8.393376391922784,9.6512909184766e+29
30.300000000000104,6.64487666096202,8.389319746083455,9.616460342860512e+29
30.400000000000105,6.643938193978031,8.385279963171238,9.581869610572928e+29
30.500000000000107,6.64300422229153,8.381256917456216,9.547516289216485e+29
30.600000000000108,6.64207470933907,8.37725048455378,9.513397978929428e+29
30.70000000000011,6.641149618974471,8.373260541405916,9.479512311845878e+29
30.80000000000011,6.640228915462711,8.36928696626281,9.445856951566753e+29
30.900000000000112,6.63931256347392,8.365329638664779,9.412429592641157e+29
31.000000000000114,6.638400528077484,8.361388439424484,9.379227960057921e+29
31.100000000000115,6.637492774736249,8.357463250609467,9.346249808747143e+29
31.200000000000117,6.6365892693008375,8.353553955524966,9.313492923091438e+29
31.300000000000118,6.635689978004052,8.349660438697036,9.280955116446701e+29
31.40000000000012,6.63479486745539,8.345782585855936,9.248634230672192e+29
31.50000000000012,6.633903904635641,8.341920283919805,9.216528135669682e+29
31.600000000000122,6.633017056891594,8.33807342097861,9.184634728931507e+29
31.700000000000124,6.632134291930822,8.33424188627834,9.152951935097287e+29
31.800000000000125,6.6312555778165665,8.330425570205506,9.121477705519161e+29
31.900000000000126,6.630380882962707,8.326624364271844,9.090210017835311e+29
32.00000000000013,6.629510176128818,8.322838161099318,9.059146875551609e+29
32.10000000000013,6.62864342641531,8.319066854405323,9.028286307631202e+29
32.20000000000013,6.627780603258655,8.315310338988173,8.997626368091878e+29
32.30000000000013,6.6269216764266945,8.311568510712798,8.967165135611e+29
32.400000000000134,6.626066616014022,8.307841266496677,8.936900713137893e+29
32.500000000000135,6.625215392437451,8.304128504296017,8.906831227513494e+29
32.600000000000136,6.624367976431557,8.300430123092124,8.876954829097086e+29
32.70000000000014,6.623524339044292,8.296746022878025,8.847269691400029e+29
32.80000000000014,6.622684451632676,8.293076104645293,8.817774010726259e+29
32.90000000000014,6.621848285858558,8.289420270371062,8.788466005819459e+29
33.00000000000014,6.621015813684454,8.28577842300529,8.759343917516747e+29
33.10000000000014,6.620187007369443,8.282150466458189,8.73040600840873e+29
33.200000000000145,6.619361839465147,8.27853630558788,8.701650562505802e+29
33.300000000000146,6.618540282811759,8.274935846188221,8.67307588491055e+29
33.40000000000015,6.617722310534155,8.271348994976842,8.64468030149613e+29
33.50000000000015,6.616907896038055,8.267775659583355,8.616462158590497e+29
33.60000000000015,6.6160970130062555,8.264215748537785,8.588419822666352e+29
33.70000000000015,6.615289635394923,8.260669171259119,8.560551680036713e+29
33.80000000000015,6.614485737429945,8.257135838044093,8.532856136555962e+29
33.900000000000155,6.613685293603341,8.253615660056118,8.50533161732625e+29
34.000000000000156,6.612888278669735,8.250108549314394,8.477976566409196e+29
34.10000000000016,6.6120946676428805,8.246614418683185,8.450789446542718e+29
34.20000000000016,6.611304435792244,8.243133181861264,8.4237687388629e+29
34.30000000000016,6.6105175586396445,8.239664753371507,8.396912942630819e+29
34.40000000000016,6.609734011955944,8.236209048550673,8.370220574964201e+29
34.50000000000016,6.608953771757793,8.232765983539307,8.343690170573819e+29
34.600000000000165,6.608176814304428,8.229335475271828,8.317320281504518e+29
34.700000000000166,6.607403116094516,8.22591744146674,8.291109476880821e+29
34.80000000000017,6.606632653863057,8.222511800617013,8.26505634265695e+29
34.90000000000017,6.605865404578329,8.219118471980602,8.239159481371234e+29
35.00000000000017,6.605101345438879,8.215737375571095,8.213417511904792e+29
35.10000000000017,6.604340453870571,8.212368432148525,8.187829069244396e+29
35.20000000000017,6.603582707523669,8.209011563210302,8.162392804249444e+29
35.300000000000175,6.602828084269976,8.20566669098229,8.137107383422954e+29
35.400000000000176,6.602076562200007,8.20233373841002,8.1119714886865e+29
35.50000000000018,6.601328119620216,8.19901262915,8.086983817159006e+29
35.60000000000018,6.600582735050258,8.195703287561209,8.06214308093934e+29
35.70000000000018,6.599840387220301,8.192405638696679,8.037448006892596e+29
35.80000000000018,6.599101055068368,8.189119608295202,8.01289733644004e+29
35.90000000000018,6.598364717737734,8.185845122773179,7.988489825352594e+29
36.000000000000185,6.597631354574352,8.182582109216565,7.964224243547833e+29
36.100000000000186,6.596900945124322,8.179330495372943,7.940099374890408e+29
36.20000000000019,6.5961734691314,8.176090209643721,7.91611401699582e+29
36.30000000000019,6.595448906534542,8.17286118107643,7.892266981037483e+29
36.40000000000019,6.594727237465489,8.169643339357126,7.868557091557041e+29
36.50000000000019,6.594008442246382,8.166436614802937,7.844983186277822e+29
36.60000000000019,6.593292501387423,8.16324093835467,7.821544115921413e+29
36.700000000000195,6.5925793955845595,8.160056241569567,7.798238744027284e+29
36.800000000000196,6.591869105717212,8.156882456614124,7.775065946775384e+29
36.9000000000002,6.591161612846033,8.153719516257057,7.75202461281168e+29
37.0000000000002,6.590456898210699,8.150567353862328,7.729113643076554e+29
37.1000000000002,6.589754943227735,8.147425903382297,7.706331950636045e+29
37.2000000000002,6.589055729488372,8.144295099350952,7.68367846051582e+29
37.3000000000002,6.588359238756437,8.141174876877255,7.661152109537883e+29
37.400000000000205,6.587665452966273,8.138065171638566,7.638751846159933e+29
37.500000000000206,6.586974354220685,8.134965919874158,7.61647663031734e+29
37.60000000000021,6.586285924788931,8.131877058378839,7.59432543326767e+29
37.70000000000021,6.58560014710472,8.128798524496645,7.572297237437728e+29
37.80000000000021,6.584917003764261,8.12573025611464,7.55039103627308e+29
37.90000000000021,6.584236477524326,8.122672191656774,7.528605834089968e+29
38.00000000000021,6.583558551300346,8.11962427007786,7.506940645929619e+29
38.100000000000215,6.582883208164537,8.116586430857614,7.485394497414881e+29
38.200000000000216,6.582210431344048,8.113558613994773,7.463966424609137e+29
38.30000000000022,6.581540204219139,8.110540760001308,7.442655473877472e+29
38.40000000000022,6.580872510321383,8.107532809896718,7.421460701750044e+29
38.50000000000022,6.580207333331897,8.104534705202378,7.400381174787602e+29
38.60000000000022,6.579544657079596,8.101546387935993,7.379415969449157e+29
38.70000000000022,6.578884465539471,8.098567800606117,7.358564171961693e+29
38.800000000000225,6.578226742830894,8.095598886206737,7.337824878191975e+29
38.900000000000226,6.577571473215942,8.092639588211936,7.317197193520315e+29
39.00000000000023,6.5769186410977545,8.089689850570643,7.296680232716349e+29
39.10000000000023,6.576268231018903,8.086749617701438,7.276273119816728e+29
39.20000000000023,6.575620227659791,8.083818834487415,7.255974988004716e+29
39.30000000000023,6.574974615837072,8.080897446271148,7.235784979491658e+29
39.40000000000023,6.574331380502092,8.077985398849693,7.215702245400278e+29
39.500000000000234,6.573690506739354,8.075082638469677,7.195725945649773e+29
39.600000000000236,6.573051979765002,8.072189111822441,7.175855248842685e+29
39.70000000000024,6.5724157849253295,8.069304766039249,7.156089332153496e+29
39.80000000000024,6.571781907695304,8.066429548686568,7.136427381218947e+29
39.90000000000024,6.571150333677114,8.063563407761391,7.116868590030006e+29
40.00000000000024,6.570521048598737,8.060706291686659,7.09741216082551e+29
40.10000000000024,6.569894038312527,8.0578581493067,7.078057303987404e+29
40.200000000000244,6.569269288793819,8.055018929882749,7.058803237937572e+29
40.300000000000246,6.568646786139558,8.052188583088537,7.039649189036229e+29
40.40000000000025,6.568026516566937,8.049367059005913,7.020594391481848e+29
40.50000000000025,6.567408466412066,8.046554308120545,7.001638087212589e+29
40.60000000000025,6.566792622128647,8.04375028131766,6.982779525809208e+29
40.70000000000025,6.5661789702866775,8.040954929877849,6.96401796439942e+29
40.80000000000025,6.5655674975711635,8.038168205472926,6.94535266756369e+29
40.900000000000254,6.564958190780854,8.035390060161838,6.926782907242425e+29
41.000000000000256,6.564351036826991,8.032620446386627,6.908307962644552e+29
41.10000000000026,6.563746022732077,8.029859316968441,6.889927120157443e+29
41.20000000000026,6.563143135628659,8.027106625103606,6.871639673258183e+29
41.30000000000026,6.562542362758127,8.024362324359736,6.853444922426129e+29
41.40000000000026,6.5619436914695335,8.021626368671901,6.835342175056774e+29
41.50000000000026,6.56134710921842,8.018898712338844,6.817330745376875e+29
41.600000000000264,6.560752603565668,8.016179310019242,6.799409954360799e+29
41.700000000000266,6.560160162176359,8.013468116728005,6.781579129648132e+29
41.80000000000027,6.559569772818655,8.010765087832647,6.763837605462448e+29
41.90000000000027,6.558981423362686,8.00807017904968,6.746184722531295e+29
42.00000000000027,6.558395101779461,8.005383346441063,6.728619828007312e+29
42.10000000000027,6.557810796139787,8.002704546410689,6.711142275390505e+29
42.20000000000027,6.557228494613202,8.000033735700926,6.693751424451644e+29
42.300000000000274,6.55664818546693,7.997370871389196,6.67644664115676e+29
42.400000000000276,6.556069857064835,7.994715910884587,6.659227297592717e+29
42.50000000000028,6.555493497866405,7.992068811924522,6.642092771893878e+29
42.60000000000028,6.554919096425738,7.989429532571474,6.625042448169791e+29
42.70000000000028,6.554346641390541,7.986798031209693,6.60807571643392e+29
42.80000000000028,6.553776121501153,7.984174266541993,6.5911919725334e+29
42.90000000000028,6.553207525589564,7.98155819758659,6.574390618079765e+29
43.000000000000284,6.552640842578462,7.978949783673954,6.557671060380679e+29
43.100000000000286,6.552076061480283,7.976348984443719,6.54103271237263e+29
43.20000000000029,6.551513171396272,7.973755759841611,6.524474992554558e+29
43.30000000000029,6.550952161515569,7.971170070116438,6.507997324922434e+29
43.40000000000029,6.550393021114286,7.9685918758170935,6.49159913890475e+29
43.50000000000029,6.5498357395546165,7.966021137789619,6.475279869298911e+29
43.60000000000029,6.549280306283939,7.96345781717427,6.45903895620852e+29
43.700000000000294,6.548726710833945,7.960901875402655,6.442875844981536e+29
43.800000000000296,6.548174942819768,7.9583532741948915,6.42678998614929e+29
43.9000000000003,6.5476249919391325,7.95581197555677,6.410780835366352e+29
44.0000000000003,6.547076847971503,7.953277941777012,6.394847853351224e+29
44.1000000000003,6.546530500777257,7.950751135424506,6.378990505827864e+29
44.2000000000003,6.545985940296852,7.9482315193455975,6.363208263468e+29
44.3000000000003,6.5454431565500215,7.945719056661419,6.347500601834248e+29
44.400000000000304,6.544902139634964,7.943213710765237,6.331867001324015e+29
44.500000000000306,6.54436287972755,7.940715445319835,6.316306947114156e+29
44.60000000000031,6.543825367080544,7.938224224254938,6.300819929106399e+29
44.70000000000031,6.543289592022822,7.935740011764654,6.285405441873507e+29
44.80000000000031,6.542755544958612,7.933262772304941,6.270062984606178e+29
44.90000000000031,6.542223216366739,7.930792470591129,6.254792061060658e+29
45.00000000000031,6.541692596799874,7.928329071595446,6.239592179507074e+29
45.100000000000314,6.541163676883802,7.925872540544582,6.224462852678451e+29
45.200000000000315,6.540636447316693,7.923422842917283,6.2094035977204315e+29
45.30000000000032,6.54011089886838,7.920979944441976,6.19441393614166e+29
45.40000000000032,6.53958702237965,7.918543811094404,6.1794933937648366e+29
45.50000000000032,6.5390648087615455,7.916114409095316,6.1646415006784284e+29
45.60000000000032,6.538544248994665,7.913691704908162,6.149857791189026e+29
45.70000000000032,6.538025334128483,7.91127566523682,6.1351418037743276e+29
45.800000000000324,6.5375080552806715,7.908866257023355,6.1204930810367635e+29
45.900000000000325,6.53699240363643,7.906463447445796,6.105911169657717e+29
46.00000000000033,6.536478370447826,7.90406720391595,6.091395620352372e+29
46.10000000000033,6.535965947033144,7.901677494077223,6.0769459878251394e+29
46.20000000000033,6.535455124776239,7.899294285802485,6.0625618307256855e+29
46.30000000000033,6.534945895125896,7.896917547191938,6.048242711605529e+29
46.40000000000033,6.534438249595205,7.894547246571035,6.033988196875211e+29
46.500000000000334,6.533932179760938,7.892183352488402,6.019797856762033e+29
46.600000000000335,6.533427677262932,7.889825833713793,6.005671265268334e+29
46.70000000000034,6.5329247338034815,7.887474659236048,5.9916080001303245e+29
46.80000000000034,6.532423341146742,7.88512979826112,5.9776076427774514e+29
46.90000000000034,6.531923491118128,7.88279122021007,5.9636697782922874e+29
47.00000000000034,6.531425175603738,7.880458894717123,5.9497939953709476e+29
47.10000000000034,6.530928386549764,7.878132791627728,5.935979886284011e+29
47.200000000000344,6.530433115961925,7.875812880996641,5.922227046837954e+29
47.300000000000345,6.529939355904899,7.873499133086042,5.908535076337075e+29
47.40000000000035,6.529447098501763,7.871191518363654,5.8949035775459054e+29
47.50000000000035,6.528956335933442,7.868890007500896,5.881332156652116e+29
47.60000000000035,6.528467060438157,7.866594571371051,5.8678204232298816e+29
47.70000000000035,6.527979264310891,7.86430518104746,5.85436799020373e+29
47.80000000000035,6.52749293990285,7.862021807801726,5.840974473812832e+29
47.900000000000354,6.527008079620939,7.859744423101949,5.82763949357577e+29
48.000000000000355,6.5265246759272335,7.857472998610971,5.8143626722557305e+29
48.10000000000036,6.526042721338472,7.855207506184652,5.801143635826155e+29
48.20000000000036,6.52556220842554,7.8529479178701465,5.787982013436813e+29
48.30000000000036,6.525083129812965,7.850694205904212,5.7748774373803105e+29
48.40000000000036,6.524605478178423,7.848446342711544,5.7618295430590185e+29
48.50000000000036,6.524129246252242,7.846204300903107,5.748837968952414e+29
48.600000000000364,6.523654426816913,7.8439680532745,5.735902356584834e+29
48.700000000000365,6.523181012706612,7.841737572804325,5.723022350493629e+29
48.80000000000037,6.522708996806722,7.839512832652607,5.710197598197724e+29
48.90000000000037,6.522238372053363,7.837293806159183,5.697427750166552e+29
49.00000000000037,6.521769131432923,7.835080466842145,5.684712459789398e+29
49.10000000000037,6.521301267981601,7.832872788396278,5.672051383345103e+29
