Time,Mass,Radius,Lx
23.0,5.4008044830316075,5.59,
23.100002009282885,5.393058057377985,5.545838936240816,
23.20000401856577,5.385649918324272,5.503124001738103,
23.300006027848656,5.37856006772264,5.461790474090627,
23.400008037131542,5.371769974086506,5.421777172012997,
23.500010046414427,5.365262446496753,5.383026239517735,
23.600012055697313,5.3590215207252205,5.345482943062778,
23.7000140649802,5.353032356281803,5.309095481134619,
23.800016074263084,5.347281143237093,5.273814805693018,
23.90001808354597,5.3417550178011926,5.239594454878645,
24.000020092828855,5.336441985753055,5.206390396375857,
24.10002210211174,5.331330852915261,5.174160880825138,
24.200024111394626,5.326411161957984,5.142866304690492,
24.30002612067751,5.321673134894437,5.112469082003967,
24.400028129960397,5.317107620699583,5.082933524430732,
24.500030139243282,5.312706047545343,5.054225729122177,
24.600032148526168,5.308460379199937,5.02631347385034,
24.700034157809053,5.304363075187223,4.999166118943682,
24.80003616709194,5.300407054344582,4.972754515571221,
24.900038176374824,5.296585661455832,4.947050919948785,
25.00004018565771,5.292892636669265,4.922028913067368,
25.100042194940595,5.289322087440828,4.897663325568922,
25.20004420422348,5.285868462769013,4.873930167419262,
25.300046213506366,5.282526529511705,4.850806562051027,
25.400048222789252,5.279291350596303,4.828270684671704,
25.500050232072137,5.2761582649532075,4.8063017044525775,
25.600052241355023,5.27312286901956,4.784879730334072,
25.70005425063791,5.270180999675065,4.763985760201406,
25.800056259920794,5.267328718485154,4.743601633201754,
25.90005826920368,5.264562297138697,4.723709984990174,
26.000060278486565,5.26187820397825,4.704294205706703,
26.10006228776945,5.25927309153039,4.685338400500919,
26.200064297052336,5.256743784952406,4.666827352433439,
26.30006630633522,5.254287271319297,4.648746487595822,
26.400068315618107,5.251900689682063,4.631081842301685,
26.500070324900992,5.249581321834527,4.613820032212255,
26.600072334183878,5.2473265837316,4.596948223269255,
26.700074343466763,5.2451340175069765,4.580454104317074,
26.80007635274965,5.243001284042885,4.564325861304402,
26.900078362032534,5.240926156048652,4.5485521529633335,
27.00008037131542,5.238906511608606,4.533122087871011,
27.100082380598305,5.236940328163247,4.518025202805554,
27.20008438988119,5.2350256768907,4.503251442314187,
27.300086399164076,5.233160717458243,4.488791139417053,
27.400088408446962,5.231343693116257,4.474634997375645,
27.500090417729847,5.229572926109229,4.4607740724594835,
27.600092427012733,5.2278468133805465,4.447199757649383,
27.70009443629562,5.226163822549699,4.433903767219684,
27.800096445578504,5.224522488142273,4.420878122145829,
27.90009845486139,5.222921408054661,4.408115136287229,
28.000100464144275,5.221359240236878,4.395607403298712,
28.10010247342716,5.219834699578172,4.383347784226957,
28.200104482710046,5.218346554981319,4.37132939575123,
28.30010649199293,5.216893626612596,4.359545599030373,
28.400108501275817,5.21547478331541,4.347989989120476,
28.500110510558702,5.2140889401765005,4.33665638493007,
28.600112519841588,5.212735056234455,4.325538819681707,
28.700114529124473,5.211412132321053,4.3146315318508215,
28.80011653840736,5.210119209026668,4.303928956554714,
28.900118547690244,5.208855364781588,4.293425717366094,
29.00012055697313,5.207619714045735,4.283116618527332,
29.100122566256015,5.206411405599782,4.272996637542985,
29.2001245755389,5.2052296209312034,4.263060918129635,
29.300126584821786,5.204073572709223,4.253304763503361,
29.40012859410467,5.202942503343084,4.243723629986258,
29.500130603387557,5.201835683618432,4.2343131209148,
29.600132612670443,5.200752411406989,4.225068980833624,
29.700134621953328,5.199692010445004,4.2159870899594765,
29.800136631236214,5.198653829176305,4.207063458900911,
29.9001386405191,5.19763723965604,4.1982942236202065,
30.000140649801985,5.196641636511474,4.189675640624781,
30.10014265908487,5.195666435956441,4.181204082376096,
30.200144668367756,5.194711074856286,4.1728760329047825,
30.30014667765064,5.193775009840346,4.164688083621357,
30.400148686933527,5.192857716459187,4.1566369293125245,
30.500150696216412,5.191958688384039,4.1487193643136155,
30.600152705499298,5.191077436645992,4.140932278848291,
30.700154714782183,5.1902134889127,4.133272655527071,
30.80015672406507,5.189366388800479,4.125737565996822,
30.900158733347954,5.188535695219813,4.1183241677336895,
31.00016074263084,5.187720981752412,4.1110297009724395,
31.100162751913725,5.186921836058076,4.1038514857655075,
31.20016476119661,5.186137859309737,4.0967869191655115,
31.300166770479496,5.185368665655143,4.089833472525189,
31.40016877976238,5.184613881703747,4.0829886889092055,
31.500170789045267,5.1838731460374445,4.076250180612469,
31.600172798328153,5.183146108743893,4.069615626779891,
31.700174807611038,5.182432430971214,4.063082771122817,
31.800176816893924,5.181731784502966,4.056649419727693,
31.90017882617681,5.181043851352314,4.050313438952534,
32.000180835459695,5.180368323374417,4.044072753407283,
32.100182844742584,5.179704901896083,4.037925344014104,
32.20018485402547,5.179053297361822,4.031869246144025,
32.30018686330836,5.178413228995451,4.025902547826467,
32.40018887259125,5.177784424476478,4.020023388028323,
32.50019088187414,5.177166619630516,4.0142299549995215,
32.60019289115703,5.176559558133041,4.008520484682123,
32.70019490043992,5.175962991225816,4.002893259180086,
32.80019690972281,5.175376677445379,3.9973466052870865,
32.900198919005696,5.1748003823629904,3.99187889306982,
33.000200928288585,5.174233878335496,3.9864885345043852,
33.100202937571474,5.173676944266571,3.9811739821634644,
33.20020494685436,5.1731293653778545,3.975933727952105,
33.30020695613725,5.1725909329895,3.970766301890035,
33.40020896542014,5.172061444309704,3.9656702709385465,
33.50021097470303,5.171540702232775,3.9606442378700284,
33.60021298398592,5.17102851514537,3.955686840178409,
33.70021499326881,5.170524696740489,3.9507967490287585,
33.8002170025517,5.170029065838903,3.9459726682444685,
33.90021901183459,5.169541446217643,3.94121333333041,
34.000221021117476,5.1690616664452556,3.9365175105306465,
34.100223030400365,5.1685895597234985,3.931883995919247,
34.200225039683254,5.168124963735198,3.927311614522859,
34.30022704896614,5.1676677204979935,3.9227992194738377,
34.40022905824903,5.167217676223698,3.9183456911925814,
34.50023106753192,5.1667746811830355,3.913949936597988,
34.60023307681481,5.166338589575515,3.9096108883449348,
34.7002350860977,5.16590925940422,3.9053275040876345,
34.80023709538059,5.1654865523552935,3.9010987657679252,
34.90023910466348,5.165070333681927,3.896923678927497,
35.000241113946366,5.164660472092645,3.8928012720430982,
35.100243123229255,5.16425683964372,3.8887305958838985,
35.200245132512144,5.163859311635527,3.884710722890083,
35.30024714179503,5.163467766512678,3.880740746571926,
35.40024915107792,5.1630820857677815,3.876819780928529,
35.50025116036081,5.162702153848667,3.8729469598854958,
35.6002531696437,5.162327858068939,3.869121436750843,
35.70025517892659,5.161959088521722,3.8653423836884317,
35.80025718820948,5.161595737996456,3.8616089912082865,
35.90025919749237,5.161237701898635,3.857920467673199,
36.00026120677526,5.160884878172355,3.8542760388209865,
36.100263216058146,5.16053716722556,3.8506749473018074,
36.200265225341035,5.160194471857892,3.8471164522300727,
36.300267234623924,5.1598566971910165,3.843599828750331,
36.40026924390681,5.1595237506013465,3.8401243676166508,
36.5002712531897,5.1591955416550626,3.8366893747850646,
36.60027326247259,5.158871982045336,3.833294171018537,
36.70027527175548,5.158552985531673,3.8299380915040433,
36.80027728103837,5.158238467881297,3.826620485481338,
36.90027929032126,5.157928346812487,3.823340715882994,
37.00028129960415,5.157622541939805,3.8200981589853154,
37.100283308887036,5.157320974721127,3.8168922040697324,
37.200285318169925,5.157023568406424,3.8137222530943395,
37.300287327452814,5.156730247988213,3.810587720375221,
37.4002893367357,5.156440940153625,3.8074880322772016,
37.50029134601859,5.156155573238028,3.8044226269137362,
37.60029335530148,5.155874077180137,3.8013909538556097,
37.70029536458437,5.155596383478572,3.7983924738481267,
37.80029737386726,5.155322425149797,3.795426658536567,
37.90029938315015,5.1550521366874,3.7924929901995608,
38.00030139243304,5.154785454022648,3.7895909614901453,
38.10030340171593,5.154522314486301,3.78672007518428,
38.200305410998816,5.1542626567716,3.783879843936513,
38.300307420281705,5.154006420898422,3.781069790042612,
38.400309429564594,5.153753548178537,3.7782894452088884,
38.50031143884748,5.153503981181943,3.7755383503280533,
38.60031344813037,5.15325766370423,3.772816055261361,
38.70031545741326,5.1530145407349375,3.7701221186267886,
38.80031746669615,5.152774558426881,3.767456107593158,
38.90031947597904,5.152537664066401,3.7648175976799325,
39.00032148526193,5.152303806044509,3.762206172562529,
39.10032349454482,5.1520729338289,3.759621423882978,
39.200325503827706,5.151844997936794,3.7570629510657603,
39.300327513110595,5.151619949908591,3.754530361138633,
39.400329522393484,5.151397742282301,3.752023268558357,
39.50033153167637,5.151178328568721,3.749541295041045,
39.60033354095926,5.150961663227353,3.7470840693971543,
39.70033555024215,5.150747701643004,3.744651227370829,
39.80033755952504,5.150536400103085,3.7422424114835486,
39.90033956880793,5.150327715775547,3.739857270881907,
40.00034157809082,5.1501216066874695,3.737495461189438,
40.10034358737371,5.149918031704244,3.735156644362296,
40.2003455966566,5.149716950509366,3.7328404885487667,
40.300347605939486,5.14951832358479,3.730546667952399,
40.400349615222375,5.149322112191843,3.7282748626987186,
40.500351624505264,5.149128278352676,3.726024758705365,
40.60035363378815,5.148936784832233,3.7237960475556124,
40.70035564307104,5.148747595120722,3.7215884263751082,
40.80035765235393,5.148560673416573,3.719401597711753,
40.90035966163682,5.148375984609869,3.7172352694186643,
41.00036167091971,5.14819349426623,3.715089154540104,
41.1003636802026,5.148013168611138,3.7129629712002625,
41.20036568948549,5.147834974514696,3.7108564424948782,
41.300367698768376,5.147658879476792,3.7087692963855434,
41.400369708051265,5.147484851612668,3.7067012655966454,
41.500371717334154,5.147312859638883,3.704652087514909,
41.60037372661704,5.147142872859643,3.7026215040913693,
41.70037573589993,5.146974861153503,3.7006092617458237,
41.80037774518282,5.146808794960421,3.6986151112735732,
41.90037975446571,5.146644645269154,3.69663880775451,
42.0003817637486,5.146482383604986,3.6946801104643523,
42.10038377303149,5.146321982017781,3.6927387827880964,
42.20038578231438,5.146163413070348,3.690814592135531,
42.30038779159727,5.146006649827107,3.688907309858806,
42.400389800880156,5.145851665843049,3.68701671117196,
42.500391810163045,5.145698435152986,3.6851425750723954,
42.600393819445934,5.145546932261075,3.6832846842642266,
42.70039582872882,5.145397132130606,3.681442825083416,
42.80039783801171,5.1452490101740604,3.679616787424736,
42.9003998472946,5.145102542243415,3.6778063646704173,
43.00040185657749,5.144957703796645,3.676011346585932,
43.10040386586038,5.144813856599312,3.674226282762206,
43.20040587514327,5.144670384223268,3.6724459043947126,
43.30040788442616,5.144527284864814,3.670670188392379,
43.400409893709046,5.144384556732998,3.6688991118307084,
43.500411902991935,5.144242198049501,3.667132651950196,
43.600413912274824,5.1441002070485125,3.6653707861547598,
43.70041592155771,5.143958581976622,3.663613492010207,
43.8004179308406,5.1438173210926985,3.661860747242696,
43.90041994012349,5.14367642266778,3.660112529737248,
44.00042194940638,5.143535884984959,3.6583688175362252,
44.10042395868927,5.143395706339275,3.6566295888379003,
44.20042596797216,5.1432558850376,3.654894821994944,
44.30042797725505,5.143116419398534,3.653164495513046,
44.40042998653794,5.142977307752297,3.6514385880494458,
44.500431995820826,5.142838548440621,3.6497170784115482,
44.600434005103715,5.142700139816649,3.6479999455555325,
44.700436014386604,5.1425620802448275,3.646287168584962,
44.80043802366949,5.142424368100805,3.6445787267494456,
44.90044003295238,5.142287001771333,3.642874599443284,
45.00044204223527,5.142149979654164,3.64117476620415,
45.10044405151816,5.142013300157952,3.6394792067117616,
45.20044606080105,5.141876961702156,3.6377879007865905,
45.30044807008394,5.141740962716943,3.6361008283885954,
45.40045007936683,5.14160530164309,3.6344179696159205,
45.500452088649716,5.1414699769318934,3.6327393047036702,
45.600454097932605,5.141334987045072,3.631064814022661,
45.700456107215494,5.141200330454675,3.629394478078182,
45.80045811649838,5.141066005642992,3.627728277508808,
45.90046012578127,5.1409320111024615,3.62606619308517,
46.00046213506416,5.14079834533558,3.624408205708792,
46.10046414434705,5.140665006854815,3.622754296410908,
46.20046615362994,5.140531994182518,3.621104446351315,
46.30046816291283,5.140399305850836,3.6194586368172055,
46.40047017219572,5.140266940401627,3.6178168492220615,
46.50047218147861,5.1401348963863756,3.6161790651045007,
46.600474190761496,5.140003172366106,3.614545266127189,
46.700476200044385,5.1398717669113045,3.6129154340757426,
46.800478209327274,5.139740678601831,3.6112895508576295,
46.90048021861016,5.139609906026846,3.6096675985011246,
47.00048222789305,5.139479447784719,3.608049559154207,
47.10048423717594,5.139349302482962,3.6064354150835545,
47.20048624645883,5.139219468738141,3.6048251486734686,
47.30048825574172,5.139089945175803,3.6032187424248683,
47.40049026502461,5.138960730430395,3.6016161789542687,
47.5004922743075,5.138831823145195,3.600017440992776,
47.600494283590386,5.1387032219722295,3.598422511385089,
47.700496292873275,5.138574925572202,3.5968313730885244,
47.800498302156164,5.138446932614421,3.5952440091720432,
47.90050031143905,5.138319241776724,3.5936604028152765,
48.00050232072194,5.138191851745406,3.59208053730758,
48.10050433000483,5.1380647612151495,3.590504396047107,
48.20050633928772,5.137937968888953,3.588931962539842,
48.30050834857061,5.137811473478061,3.5873632203987187,
48.4005103578535,5.137685273701895,3.585798153342671,
48.50051236713639,5.1375593682879845,3.584236745195756,
48.60051437641928,5.1374337559719,3.5826789798862526,
48.700516385702166,5.137308435497186,3.5811248414457784,
48.800518394985055,5.137183405615294,3.579574314008408,
48.900520404267944,5.137058665085516,3.5780273818098185,
49.00052241355083,5.136934212674923,3.5764840291864255,
49.10052442283372,5.1368100471582965,3.5749442405745397,
49.20052643211661,5.136686167318066,3.573408000509523,
49.3005284413995,5.136562571944249,3.5718752936249705,
49.40053045068239,5.136439259834384,3.5703461046518834,
49.50053245996528,5.136316229793473,3.5688204184178427,
49.60053446924817,5.136193480633916,3.567298219846229,
49.700536478531056,5.136071011175455,3.5657794939554015,
49.800538487813945,5.13594882024511,3.5642642258579396,
49.900540497096834,5.135826906677125,3.5627524007598432,
50.00054250637972,5.135705269312903,3.561244003959753,
50.10054451566261,5.135583907000953,3.55973902084821,
50.2005465249455,5.135462818596829,3.5582374369068805,
50.30054853422839,5.1353420029630765,3.55673923770783,
50.40055054351128,5.135221458969173,3.555244408912754,
50.50055255279417,5.135101185491474,3.553752936272258,
50.60055456207706,5.134981181413158,3.5522648056251453,
50.70055657135995,5.1348614456241695,3.550780002897672,
50.800558580642836,5.134741977021168,3.5492985141028615,
50.900560589925725,5.134622774507473,3.5478203253397824,
51.000562599208614,5.1345038369930105,3.5463454227928692,
51.1005646084915,5.134385163394261,3.5448737927312037,
51.20056661777439,5.134266752634208,3.5434054215078694,
51.30056862705728,5.134148603642284,3.541940295559242,
51.40057063634017,5.134030715354324,3.5404784014043362,
51.50057264562306,5.133913086712511,3.5390197256441427,
51.60057465490595,5.133795716665327,3.5375642549609796,
51.70057666418884,5.133678604167506,3.536111976117822,
51.800578673471726,5.1335617481799805,3.5346628759576735,
51.900580682754615,5.133445147669836,3.533216941402922,
52.000582692037504,5.133328801610265,3.53177415945473,
52.10058470132039,5.133212708980512,3.530334517192369,
52.20058671060328,5.133096868765835,3.5288980017726526,
52.30058871988617,5.132981279957454,3.5274646004292762,
52.40059072916906,5.132865941552503,3.5260343004722436,
52.50059273845195,5.132750852553991,3.5246070892872496,
52.60059474773484,5.132636011970749,3.5231829543350983,
52.70059675701773,5.13252141881739,3.521761883151106,
52.80059876630062,5.132407072114265,3.520343863344526,
52.900600775583506,5.132292970887414,3.5189288825979466,
53.000602784866395,5.132179114168526,3.5175169286667622,
53.100604794149284,5.132065500994896,3.5161079893785647,
53.20060680343217,5.131952130409382,3.514702052632619,
53.30060881271506,5.13183900146036,3.5132991063992747,
53.40061082199795,5.131726113201686,3.511899138719446,
53.50061283128084,5.1316134646926495,3.5105021377040355,
53.60061484056373,5.131501054997939,3.509108091533436,
53.70061684984662,5.131388883187594,3.5077169884569526,
53.80061885912951,5.131276948336969,3.5063288167923026,
53.900620868412396,5.131165249526692,3.5049435649250786,
54.000622877695285,5.131053785842626,3.503561221308237,
54.100624886978174,5.130942556375828,3.5021817744615755,
54.20062689626106,5.130831560222512,3.500805212971238,
54.30062890554395,5.130720796484006,3.499431525489186,
54.40063091482684,5.130610264266721,3.4980607007327267,
54.50063292410973,5.130499962682107,3.496692727483989,
54.60063493339262,5.130389890846617,3.4953275945894604,
54.70063694267551,5.130280047881672,3.4939652909594834,
54.8006389519584,5.130170432913622,3.492605805567787,
54.90064096124129,5.13006104507371,3.491249127450991,
55.000642970524176,5.129951883498035,3.4898952457081514,
55.100644979807065,5.129842947327519,3.4885441495002874,
55.200646989089954,5.1297342357078675,3.4871958280499133,
55.30064899837284,5.129625747789539,3.4858502706405883,
55.40065100765573,5.129517482727704,3.4845074666164444,
55.50065301693862,5.129409439682218,3.48316740538176,
55.60065502622151,5.12930161781758,3.481830076400496,
55.7006570355044,5.129194016302905,3.480495469195856,
55.80065904478729,5.129086634311884,3.479163573349845,
55.90066105407018,5.128979471022756,3.477834378502844,
56.000663063353066,5.128872525618272,3.476507874353164,
56.100665072635955,5.128765797285665,3.4751840506566514,
56.200667081918844,5.128659285216613,3.473862897226222,
56.30066909120173,5.128552988607213,3.4725444039314817,
56.40067110048462,5.128446906657944,3.4712285606982776,
56.50067310976751,5.1283410385736365,3.4699153575083095,
56.6006751190504,5.128235383563445,3.468604784398722,
56.70067712833329,5.128129940840812,3.4672968314616828,
56.80067913761618,5.12802470962344,3.465991488844007,
56.90068114689907,5.12791968913326,3.4646887467467335,
57.00068315618196,5.127814878596403,3.463388595424753,
57.100685165464846,5.1277102772431675,3.462091025186419,
57.200687174747735,5.127605884307993,3.460796026393143,
57.300689184030624,5.127501699029427,3.459503589459022,
57.40069119331351,5.1273977206501,3.4582137048504764,
57.5006932025964,5.127293948416692,3.4569263630858376,
57.60069521187929,5.127190381579909,3.455641554735018,
57.70069722116218,5.127087019394449,3.454359270419099,
57.80069923044507,5.126983861118981,3.4530795008100075,
57.90070123972796,5.126880906016108,3.4518022366301144,
58.00070324901085,5.126778153352349,3.450527468651905,
58.100705258293736,5.126675602398105,3.4492551876976085,
58.200707267576625,5.126573252427634,3.4479853846388453,
58.300709276859514,5.126471102719024,3.4467180503962833,
58.4007112861424,5.126369152554166,3.4454531759392792,
58.50071329542529,5.12626740121873,3.4441907522855555,
58.60071530470818,5.126165848002133,3.442930770500829,
58.70071731399107,5.1260644921975205,3.44167322169851,
58.80071932327396,5.125963333101735,3.440418097039336,
