Time,Mass,Radius,Lx
23.0,68.9970542082866,10.27,0.0
33.014084507042256,68.9680484934795,10.267267250047396,0.0
43.02816901408451,68.9468749685673,10.2652721371268,0.0
53.04225352112677,68.9301985423649,10.263700612968135,0.0
63.05633802816902,68.91644335700164,10.262404270603001,0.0
73.07042253521128,68.90473899435106,10.26130113097992,0.0
83.08450704225353,68.89455375374801,10.260341113081878,0.0
93.09859154929579,68.88553899499598,10.259491376411418,0.0
103.11267605633805,68.8774537285764,10.258729219531416,0.0
113.1267605633803,68.87012442484878,10.25803829502342,0.0
123.14084507042256,68.86342198305337,10.257406440395787,0.0
133.1549295774648,68.85724775756998,10.256824361959751,0.0
143.16901408450704,68.8515246779701,10.256284798434136,0.0
153.18309859154928,68.84619138576267,10.255781968670288,0.0
163.19718309859152,68.84119823615703,10.255311195035393,0.0
173.21126760563376,68.83650449549704,10.2548686394148,0.0
183.225352112676,68.83207632949082,10.254451113700785,0.0
193.23943661971825,68.8278853287741,10.254055940895102,0.0
203.2535211267605,68.8239074083213,10.253680851426811,0.0
213.26760563380273,68.82012197245025,10.25332390448879,0.0
223.28169014084497,68.81651127205443,10.25298342748232,0.0
233.2957746478872,68.81305990329965,10.25265796878811,0.0
243.30985915492946,68.8097544120021,10.252346260493043,0.0
253.3239436619717,68.80658297803701,10.2520471886564,0.0
263.33802816901397,68.8035351611078,10.251759769356783,0.0
273.3521126760562,68.80060169409694,10.251483129221734,0.0
283.36619718309845,68.79777431369868,10.251216489469789,0.0
293.3802816901407,68.79504562054453,10.250959152731111,0.0
303.39436619718293,68.79240896286672,10.250710492085817,0.0
313.4084507042252,68.78985833910194,10.25046994188675,0.0
323.4225352112674,68.7873883158522,10.250236990029197,0.0
333.43661971830966,68.78499395838625,10.250011171402168,0.0
343.4507042253519,68.78267077144987,10.249792062310979,0.0
353.46478873239414,68.78041464860304,10.249579275703262,0.0
363.4788732394364,68.77822182865157,10.249372457063437,0.0
373.4929577464786,68.7760888580136,10.249171280866388,0.0
383.50704225352086,68.77401255807673,10.248975447501397,0.0
393.5211267605631,68.77198999677233,10.248784680593435,0.0
403.53521126760535,68.77001846372954,10.24859872466177,0.0
413.5492957746476,68.76809544848174,10.248417343066198,0.0
423.56338028168983,68.76621862128607,10.248240316199514,0.0
433.5774647887321,68.76438581618895,10.248067439891605,0.0
443.5915492957743,68.76259501602935,10.247898523996165,0.0
453.60563380281656,68.76084433911966,10.247733391135478,0.0
463.6197183098588,68.7591320273839,10.247571875582535,0.0
473.63380281690104,68.7574564357661,10.24741382226285,0.0
483.6478873239433,68.7558160227491,10.24725908586091,0.0
493.6619718309855,68.75420934184692,10.247107530018383,0.0
503.67605633802776,68.7526350339531,10.246959026612977,0.0
513.69014084507,68.75109182044392,10.246813455108438,0.0
523.7042253521123,68.74957849694867,10.246670701967425,0.0
533.7183098591546,68.74809392771115,10.246530660120085,0.0
543.7323943661969,68.74663704047624,10.246393228482118,0.0
553.7464788732392,68.74520682184409,10.24625831151692,0.0
563.7605633802815,68.74380231304134,10.246125818837005,0.0
573.7746478873238,68.74242260606552,10.245995664840622,0.0
583.7887323943661,68.74106684016344,10.245867768379831,0.0
593.8028169014084,68.73973419860987,10.245742052456889,0.0
603.8169014084507,68.7384239057559,10.245618443946045,0.0
613.830985915493,68.73713522432064,10.245496873338276,0.0
623.8450704225353,68.73586745290245,10.245377274506703,0.0
633.8591549295776,68.73461992368864,10.245259584490727,0.0
643.8732394366199,68.73339200034505,10.245143743297106,0.0
653.8873239436622,68.73218307606884,10.24502969371641,0.0
663.9014084507045,68.7309925717894,10.244917381153456,0.0
673.9154929577468,68.72981993450432,10.244806753470456,0.0
683.9295774647891,68.72866463573818,10.24469776084174,0.0
693.9436619718314,68.72752617011363,10.244590355619078,0.0
703.9577464788737,68.726404054025,10.24448449220664,0.0
713.971830985916,68.72529782440573,10.244380126944831,0.0
723.9859154929583,68.72420703758185,10.244277218002207,0.0
734.0000000000006,68.72313126820426,10.244175725274834,0.0
744.0140845070429,68.72207010825358,10.244075610292487,0.0
754.0281690140852,68.72102316611152,10.24397683613111,0.0
764.0422535211275,68.71999006569376,10.243879367331077,0.0
774.0563380281698,68.71897044563923,10.243783169820782,0.0
784.0704225352121,68.71796395855169,10.243688210845136,0.0
794.0845070422544,68.71697027028951,10.243594458898619,0.0
804.0985915492967,68.71598905929993,10.243501883662535,0.0
814.112676056339,68.71502001599474,10.243410455946146,0.0
824.1267605633813,68.71406284216405,10.243320147631419,0.0
834.1408450704236,68.71311725042561,10.243230931621117,0.0
844.1549295774659,68.71218296370698,10.243142781789974,0.0
854.1690140845081,68.71125971475831,10.24305567293878,0.0
864.1830985915504,68.71034724569361,10.242969580751128,0.0
874.1971830985927,68.7094453075584,10.242884481752657,0.0
884.211267605635,68.70855365992206,10.242800353272635,0.0
894.2253521126773,68.7076720704932,10.242717173407678,0.0
904.2394366197196,68.70680031475644,10.242634920987534,0.0
914.2535211267619,68.70593817562921,10.242553575542715,0.0
924.2676056338042,68.70508544313738,10.242473117273917,0.0
934.2816901408465,68.70424191410824,10.242393527023086,0.0
944.2957746478888,68.70340739187996,10.242314786246023,0.0
954.3098591549311,68.70258168602645,10.242236876986448,0.0
964.3239436619734,68.70176461209644,10.2421597818514,0.0
974.3380281690157,68.70095599136623,10.242083483987926,0.0
984.352112676058,68.70015565060503,10.24200796706097,0.0
994.3661971831003,68.69936342185213,10.241933215232349,0.0
1004.3802816901426,68.69857939511165,10.241859237004299,0.0
1014.3943661971849,68.69780612583173,10.241786273511863,0.0
1024.408450704227,68.69704382109629,10.241714344307592,0.0
1034.4225352112694,68.696292220072,10.241643424792384,0.0
1044.4366197183117,68.69555107058515,10.24157349118367,0.0
1054.450704225354,68.69482012875426,10.241504520480786,0.0
1064.4647887323963,68.6940991586415,10.241436490432108,0.0
1074.4788732394386,68.69338793192215,10.241369379503874,0.0
1084.492957746481,68.69268622757045,10.241303166850594,0.0
1094.5070422535232,68.69199383156143,10.241237832286913,0.0
1104.5211267605655,68.69131053658738,10.24117335626089,0.0
1114.5352112676078,68.69063614178827,10.241109719828588,0.0
1124.54929577465,68.68997045249542,10.241046904629885,0.0
1134.5633802816924,68.68931327998732,10.24098489286548,0.0
1144.5774647887347,68.68866444125739,10.240923667274979,0.0
1154.591549295777,68.68802375879258,10.240863211116018,0.0
1164.6056338028193,68.68739106036246,10.240803508144388,0.0
1174.6197183098616,68.6867661788181,10.240744542595072,0.0
1184.6338028169039,68.68614895190031,10.240686299164151,0.0
1194.6478873239462,68.68553922205659,10.240628762991564,0.0
1204.6619718309885,68.6849368362665,10.240571919644623,0.0
1214.6760563380308,68.68434164587478,10.240515755102296,0.0
1224.690140845073,68.68375350643205,10.240460255740176,0.0
1234.7042253521154,68.68317227754251,10.24040540831612,0.0
1244.7183098591577,68.68259782271835,10.240351199956532,0.0
1254.7323943662,68.6820300092405,10.240297618143218,0.0
1264.7464788732423,68.6814687080255,10.240244650700848,0.0
1274.7605633802846,68.68091379349794,10.240192285784914,0.0
1284.7746478873269,68.68036514346839,10.240140511870235,0.0
1294.7887323943692,68.67982263901662,10.240089317739933,0.0
1304.8028169014115,68.67928616437952,10.240038692474867,0.0
1314.8169014084538,68.67875560684381,10.239988625443521,0.0
1324.830985915496,68.67823085664314,10.239939106292297,0.0
1334.8450704225384,68.67771180685945,10.23989012493622,0.0
1344.8591549295807,68.6771983533283,10.239841671549998,0.0
1354.873239436623,68.67669039454802,10.239793736559472,0.0
1364.8873239436653,68.67618783159257,10.239746310633382,0.0
1374.9014084507075,68.67569056802782,10.23969938467549,0.0
1384.9154929577498,68.6751985098311,10.239652949816975,0.0
1394.9295774647921,68.67471156531403,10.239606997409174,0.0
1404.9436619718344,68.67422964504816,10.23956151901656,0.0
1414.9577464788767,68.67375266179373,10.239516506410022,0.0
1424.971830985919,68.67328053043097,10.239471951560397,0.0
1434.9859154929613,68.6728131678941,10.239427846632232,0.0
1445.0000000000036,68.67235049310784,10.239384183977812,0.0
1455.014084507046,68.67189242692626,10.239340956131382,0.0
1465.0281690140882,68.67143889207397,10.23929815580361,0.0
1475.0422535211305,68.67098981308943,10.239255775876229,0.0
1485.0563380281728,68.67054511627043,10.23921380939691,0.0
1495.0704225352151,68.6701047296215,10.239172249574295,0.0
1505.0845070422574,68.66966858280321,10.239131089773212,0.0
1515.0985915492997,68.66923660708342,10.239090323510087,0.0
1525.112676056342,68.66880873529014,10.239049944448492,0.0
1535.1267605633843,68.66838490176616,10.239009946394871,0.0
1545.1408450704266,68.66796504232525,10.238970323294403,0.0
1555.154929577469,68.66754909420992,10.238931069227023,0.0
1565.1690140845112,68.6671369960506,10.238892178403576,0.0
1575.1830985915535,68.66672868782638,10.238853645162107,0.0
1585.1971830985958,68.66632411082689,10.238815463964269,0.0
1595.211267605638,68.66592320761572,10.238777629391874,0.0
1605.2253521126804,68.66552592199488,10.238740136143543,0.0
1615.2394366197227,68.66513219897064,10.238702979031483,0.0
1625.253521126765,68.66474198472035,10.238666152978354,0.0
1635.2676056338073,68.66435522656052,10.238629653014264,0.0
1645.2816901408496,68.66397187291588,10.238593474273852,0.0
1655.295774647892,68.66359187328949,10.23855761199346,0.0
1665.3098591549342,68.6632151782338,10.23852206150842,0.0
1675.3239436619765,68.6628417393227,10.238486818250395,0.0
1685.3380281690188,68.66247150912444,10.238451877744849,0.0
1695.352112676061,68.66210444117546,10.238417235608566,0.0
1705.3661971831034,68.66174048995498,10.23838288754725,0.0
1715.3802816901457,68.66137961086056,10.238348829353232,0.0
1725.394366197188,68.66102176018424,10.238315056903211,0.0
1735.4084507042303,68.66066689508956,10.23828156615609,0.0
1745.4225352112726,68.6603149735893,10.238248353150874,0.0
1755.436619718315,68.65996595452378,10.23821541400463,0.0
1765.4507042253572,68.65961979754006,10.238182744910512,0.0
1775.4647887323995,68.65927646307155,10.238150342135857,0.0
1785.4788732394418,68.6589359123184,10.238118202020315,0.0
1795.492957746484,68.6585981072284,10.238086320974066,0.0
1805.5070422535264,68.65826301047854,10.238054695476064,0.0
1815.5211267605687,68.65793058545702,10.23802332207236,0.0
1825.535211267611,68.65760079624592,10.237992197374446,0.0
1835.5492957746533,68.65727360760424,10.237961318057668,0.0
1845.5633802816956,68.65694898495161,10.23793068085969,0.0
1855.5774647887379,68.65662689435236,10.237900282578991,0.0
1865.5915492957802,68.65630730250007,10.2378701200734,0.0
1875.6056338028225,68.65599017670263,10.237840190258693,0.0
1885.6197183098648,68.6556754848677,10.237810490107226,0.0
1895.633802816907,68.65536319548855,10.23778101664659,0.0
1905.6478873239494,68.65505327763036,10.23775176695833,0.0
1915.6619718309917,68.6547457009169,10.237722738176672,0.0
1925.676056338034,68.6544404355176,10.237693927487323,0.0
1935.6901408450763,68.6541374521349,10.237665332126266,0.0
1945.7042253521186,68.6538367219921,10.237636949378611,0.0
1955.7183098591609,68.65353821682143,10.237608776577488,0.0
1965.7323943662032,68.6532419088525,10.23758081110293,0.0
1975.7464788732455,68.65294777080103,10.237553050380841,0.0
1985.7605633802877,68.65265577585805,10.237525491881945,0.0
1995.77464788733,68.6523658976791,10.237498133120795,0.0
2005.7887323943723,68.652078110374,10.237470971654794,0.0
2015.8028169014146,68.65179238849679,10.237444005083246,0.0
2025.816901408457,68.65150870703586,10.237417231046436,0.0
2035.8309859154992,68.65122704140455,10.237390647224725,0.0
2045.8450704225415,68.65094736743178,10.237364251337686,0.0
2055.859154929584,68.65066966135309,10.237338041143241,0.0
2065.873239436626,68.6503938998018,10.237312014436844,0.0
2075.8873239436684,68.65012005980051,10.237286169050668,0.0
2085.9014084507107,68.64984811875276,10.237260502852815,0.0
2095.915492957753,68.64957805443488,10.237235013746567,0.0
2105.9295774647953,68.64930984498817,10.23720969966962,0.0
2115.9436619718376,68.6490434689111,10.237184558593377,0.0
2125.95774647888,68.6487789050519,10.237159588522223,0.0
2135.971830985922,68.64851613260119,10.237134787492852,0.0
2145.9859154929645,68.64825513108492,10.237110153573589,0.0
2156.000000000007,68.6479958803574,10.237085684863729,0.0
2166.014084507049,68.6477383605945,10.23706137949291,0.0
2176.0281690140914,68.64748255228712,10.237037235620482,0.0
2186.0422535211337,68.64722843623471,10.237013251434906,0.0
2196.056338028176,68.64697599353904,10.236989425153162,0.0
2206.0704225352183,68.64672520559807,10.236965755020169,0.0
2216.0845070422606,68.64647605409996,10.236942239308224,0.0
2226.098591549303,68.64622852101728,10.236918876316455,0.0
2236.112676056345,68.64598258860134,10.236895664370287,0.0
2246.1267605633875,68.64573823937664,10.236872601820913,0.0
2256.14084507043,68.64549545613548,10.236849687044792,0.0
2266.154929577472,68.64525422193266,10.236826918443146,0.0
2276.1690140845144,68.64501452008037,10.23680429444148,0.0
2286.1830985915567,68.64477633414312,10.236781813489099,0.0
2296.197183098599,68.64453964793292,10.236759474058658,0.0
2306.2112676056413,68.64430444550439,10.236737274645703,0.0
2316.2253521126836,68.64407071115016,10.23671521376823,0.0
2326.239436619726,68.64383842939628,10.236693289966254,0.0
2336.253521126768,68.64360758499777,10.236671501801395,0.0
2346.2676056338105,68.64337816293423,10.236649847856457,0.0
2356.281690140853,68.64315014840565,10.236628326735037,0.0
2366.295774647895,68.64292352682823,10.236606937061126,0.0
2376.3098591549374,68.64269828383027,10.236585677478729,0.0
2386.3239436619797,68.6424744052483,10.236564546651492,0.0
2396.338028169022,68.64225187712312,10.236543543262334,0.0
2406.3521126760643,68.64203068569606,10.23652266601309,0.0
2416.3661971831066,68.64181081740526,10.236501913624165,0.0
2426.380281690149,68.64159225888206,10.236481284834188,0.0
2436.394366197191,68.64137499694743,10.236460778399678,0.0
2446.4084507042335,68.6411590186086,10.236440393094728,0.0
2456.4225352112758,68.64094431105558,10.236420127710671,0.0
2466.436619718318,68.64073086165787,10.23639998105578,0.0
2476.4507042253604,68.6405186579613,10.236379951954955,0.0
2486.4647887324027,68.64030768768477,10.236360039249432,0.0
2496.478873239445,68.64009793871725,10.236340241796483,0.0
2506.4929577464873,68.63988939911467,10.236320558469139,0.0
2516.5070422535296,68.639682057097,10.236300988155906,0.0
2526.521126760572,68.6394759010454,10.236281529760488,0.0
2536.535211267614,68.63927091949927,10.23626218220153,0.0
2546.5492957746565,68.63906710115359,10.236242944412352,0.0
2556.5633802816988,68.63886443485615,10.236223815340681,0.0
2566.577464788741,68.6386629096049,10.236204793948426,0.0
2576.5915492957834,68.63846251454537,10.236185879211405,0.0
2586.6056338028257,68.6382632389681,10.236167070119123,0.0
2596.619718309868,68.63806507230616,10.236148365674538,0.0
2606.6338028169102,68.63786800413274,10.236129764893814,0.0
2616.6478873239525,68.6376720241587,10.236111266806114,0.0
2626.661971830995,68.63747712223028,10.236092870453371,0.0
2636.676056338037,68.6372832883268,10.236074574890068,0.0
2646.6901408450794,68.6370905125584,10.23605637918304,0.0
2656.7042253521217,68.63689878516388,10.236038282411252,0.0
2666.718309859164,68.63670809650851,10.236020283665603,0.0
2676.7323943662063,68.63651843708196,10.236002382048731,0.0
2686.7464788732486,68.63632979749617,10.235984576674806,0.0
2696.760563380291,68.63614216848343,10.235966866669356,0.0
2706.7746478873332,68.6359555408943,10.235949251169064,0.0
2716.7887323943755,68.63576990569572,10.235931729321596,0.0
2726.802816901418,68.6355852539691,10.235914300285417,0.0
2736.81690140846,68.63540157690844,10.235896963229612,0.0
2746.8309859155024,68.63521886581852,10.23587971733372,0.0
2756.8450704225447,68.63503711211308,10.235862561787561,0.0
2766.859154929587,68.63485630731311,10.235845495791073,0.0
2776.8732394366293,68.63467644304511,10.235828518554145,0.0
2786.8873239436716,68.63449751103934,10.235811629296457,0.0
2796.901408450714,68.63431950312828,10.23579482724734,0.0
2806.915492957756,68.63414241124491,10.235778111645596,0.0
2816.9295774647985,68.63396622742115,10.235761481739369,0.0
2826.943661971841,68.63379094378632,10.235744936785991,0.0
2836.957746478883,68.6336165525656,10.235728476051836,0.0
2846.9718309859254,68.63344304607848,10.235712098812181,0.0
2856.9859154929677,68.63327041673737,10.235695804351064,0.0
2867.00000000001,68.63309865704612,10.235679591961151,0.0
2877.0140845070523,68.63292775959854,10.235663460943602,0.0
2887.0281690140946,68.63275771707714,10.235647410607937,0.0
2897.042253521137,68.63258852225164,10.235631440271908,0.0
2907.056338028179,68.63242016797768,10.235615549261377,0.0
2917.0704225352215,68.63225264719557,10.235599736910189,0.0
2927.084507042264,68.63208595292888,10.235584002560044,0.0
2937.098591549306,68.63192007828326,10.235568345560395,0.0
2947.1126760563484,68.63175501644518,10.235552765268311,0.0
2957.1267605633907,68.63159076068071,10.235537261048371,0.0
2967.140845070433,68.6314273043343,10.235521832272557,0.0
2977.1549295774753,68.63126464082764,10.235506478320133,0.0
2987.1690140845176,68.6311027636585,10.235491198577542,0.0
2997.18309859156,68.6309416663996,10.235475992438298,0.0
3007.197183098602,68.63078134269745,10.23546085930288,0.0
3017.2112676056445,68.63062178627133,10.23544579857863,0.0
3027.225352112687,68.63046299091222,10.235430809679652,0.0
3037.239436619729,68.63030495048166,10.235415892026715,0.0
3047.2535211267714,68.6301476589108,10.235401045047153,0.0
3057.2676056338137,68.62999111019936,10.235386268174766,0.0
3067.281690140856,68.62983529841463,10.235371560849732,0.0
3077.2957746478983,68.62968021769049,10.235356922518513,0.0
3087.3098591549406,68.62952586222646,10.23534235263376,0.0
3097.323943661983,68.62937222628675,10.235327850654233,0.0
3107.338028169025,68.62921930419931,10.235313416044706,0.0
3117.3521126760675,68.62906709035495,10.235299048275875,0.0
3127.3661971831098,68.62891557920643,10.235284746824293,0.0
3137.380281690152,68.62876476526759,10.235270511172269,0.0
3147.3943661971944,68.62861464311246,10.23525634080779,0.0
3157.4084507042367,68.62846520737442,10.23524223522445,0.0
3167.422535211279,68.62831645274541,10.23522819392136,0.0
3177.4366197183213,68.62816837397503,10.235214216403078,0.0
3187.4507042253636,68.62802096586978,10.235200302179525,0.0
3197.464788732406,68.62787422329228,10.235186450765921,0.0
3207.478873239448,68.62772814116045,10.235172661682704,0.0
3217.4929577464904,68.62758271444676,10.235158934455455,0.0
3227.5070422535327,68.6274379381775,10.235145268614838,0.0
3237.521126760575,68.62729380743198,10.235131663696517,0.0
3247.5352112676173,68.6271503173419,10.235118119241097,0.0
3257.5492957746596,68.62700746309054,10.235104634794054,0.0
3267.563380281702,68.62686523991208,10.235091209905665,0.0
3277.5774647887442,68.62672364309094,10.235077844130947,0.0
3287.5915492957865,68.62658266796106,10.23506453702959,0.0
3297.605633802829,68.62644230990526,10.235051288165893,0.0
3307.619718309871,68.62630256435456,10.23503809710871,0.0
3317.6338028169134,68.62616342678756,10.235024963431375,0.0
3327.6478873239557,68.62602489272976,10.235011886711655,0.0
3337.661971830998,68.62588695775297,10.234998866531685,0.0
3347.6760563380403,68.62574961747467,10.234985902477904,0.0
3357.6901408450826,68.62561286755744,10.23497299414101,0.0
3367.704225352125,68.6254767037083,10.234960141115899,0.0
3377.718309859167,68.6253411216782,10.234947343001606,0.0
3387.7323943662095,68.62520611726138,10.234934599401248,0.0
3397.746478873252,68.62507168629485,10.234921909921985,0.0
