Time,Mass,Radius,Lx
23.0,17.64555492954335,10.27,1.44e+30
24.0,17.61919828513473,10.22322816651599,1.44e+30
25.0,17.59320228118184,10.178372734556747,1.44e+30
26.0,17.567547927828432,10.135276814178955,1.44e+30
27.0,17.54221794730277,10.093801793558214,1.44e+30
28.0,17.51719656226075,10.053824620865642,1.44e+30
29.0,17.492469316898507,10.015235571678856,1.44e+30
30.0,17.468022924808704,9.977936401662244,1.44e+30
31.0,17.443845138826184,9.94183880756747,1.44e+30
32.0,17.419924639079696,9.906863136931154,1.44e+30
33.0,17.39625093621493,9.872937299857563,1.44e+30
34.0,17.37281428733644,9.839995846142275,1.44e+30
35.0,17.34960562267276,9.807979178545944,1.44e+30
36.0,17.326616481330152,9.776832878858668,1.44e+30
37.0,17.303838954787896,9.746507127933992,1.44e+30
38.0,17.281265637018798,9.71695620443071,1.44e+30
39.0,17.25888958030445,9.688138049811705,1.44e+30
40.0,17.236704255966067,9.660013889384222,1.44e+30
41.0,17.214703519355034,9.632547900954634,1.44e+30
42.0,17.19288157854869,9.605706924110581,1.44e+30
43.0,17.171232966280456,9.579460204309092,1.44e+30
44.0,17.149752514702847,9.553779166898245,1.44e+30
45.0,17.128435332639672,9.52863721697623,1.44e+30
46.0,17.10727678503217,9.504009561629987,1.44e+30
47.0,17.086272474324456,9.479873051622869,1.44e+30
48.0,17.065418223568,9.456206040038191,1.44e+30
49.0,17.044710061053923,9.432988255749912,1.44e+30
50.0,17.024144206306698,9.410200689896755,1.44e+30
51.0,17.003717057293798,9.387825493791924,1.44e+30
52.0,16.983425178724058,9.365845886916544,1.44e+30
53.0,16.963265291322926,9.344246073827383,1.44e+30
54.0,16.943234261986177,9.323011168964516,1.44e+30
55.0,16.923329094725247,9.302127128476386,1.44e+30
56.0,16.903546922327298,9.28158068829259,1.44e+30
57.0,16.883884998661884,9.261359307771146,1.44e+30
58.0,16.864340691573616,9.24145111833012,1.44e+30
59.0,16.84491147630687,9.221844876544917,1.44e+30
60.0,16.825594929414393,9.202529921254383,1.44e+30
61.0,16.80638872310673,9.183496134272357,1.44e+30
62.0,16.78729062000385,9.164733904347838,1.44e+30
63.0,16.768298468254372,9.146234094057366,1.44e+30
64.0,16.749410196991164,9.127988009348579,1.44e+30
65.0,16.730623812095303,9.109987371484701,1.44e+30
66.0,16.71193739224301,9.092224291166962,1.44e+30
67.0,16.69334908521268,9.074691244635508,1.44e+30
68.0,16.674857104431286,9.05738105157047,1.44e+30
69.0,16.656459725741293,9.040286854633244,1.44e+30
70.0,16.638155284371088,9.023402100504336,1.44e+30
71.0,16.61994217209335,9.006720522288607,1.44e+30
72.0,16.601818834557214,8.99023612317147,1.44e+30
73.0,16.583783768781363,8.973943161221145,1.44e+30
74.0,16.56583552079624,8.957836135241967,1.44e+30
75.0,16.547972683424657,8.941909771592975,1.44e+30
76.0,16.530193894190877,8.926159011893942,1.44e+30
77.0,16.512497833349215,8.910579001548266,1.44e+30
78.0,16.494883222023805,8.89516507901859,1.44e+30
79.0,16.47734882045194,8.879912765796806,1.44e+30
80.0,16.459893426323998,8.864817757015276,1.44e+30
81.0,16.44251587321346,8.849875912650822,1.44e+30
82.0,16.425215029091135,8.835083249277249,1.44e+30
83.0,16.40798979491804,8.820435932325891,1.44e+30
84.0,16.390839103311947,8.805930268817226,1.44e+30
85.0,16.37376191728282,8.791562700529598,1.44e+30
86.0,16.356757229032905,8.777329797573955,1.44e+30
87.0,16.33982405881739,8.763228252346071,1.44e+30
88.0,16.322961453861936,8.749254873829953,1.44e+30
89.0,16.30616848733365,8.735406582228348,1.44e+30
90.0,16.289444257362234,8.721680403898075,1.44e+30
91.0,16.272787886108397,8.708073466569731,1.44e+30
92.0,16.256198518876698,8.694582994832802,1.44e+30
93.0,16.23967532327029,8.681206305868804,1.44e+30
94.0,16.22321748838511,8.667940805416247,1.44e+30
95.0,16.206824224041302,8.654783983952564,1.44e+30
96.0,16.19049476004978,8.641733413079102,1.44e+30
97.0,16.17422834551196,8.628786742096477,1.44e+30
98.0,16.158024248150824,8.615941694758334,1.44e+30
99.0,16.141881753671655,8.603196066192515,1.44e+30
100.0,16.125800165150785,8.590547719979451,1.44e+30
101.0,16.1097788024509,8.577994585378196,1.44e+30
102.0,16.093817001661467,8.565534654691273,1.44e+30
103.0,16.077914114562983,8.55316598076014,1.44e+30
104.0,16.062069508113826,8.54088667458353,1.44e+30
105.0,16.0462825639585,8.528694903051585,1.44e+30
106.0,16.03055267795623,8.516588886789028,1.44e+30
107.0,16.014879259728872,8.504566898101244,1.44e+30
108.0,15.999261732227144,8.49262725901735,1.44e+30
109.0,15.983699531314308,8.480768339424891,1.44e+30
110.0,15.968192105366434,8.468988555291036,1.44e+30
111.0,15.952738914888428,8.457286366965516,1.44e+30
112.0,15.93733943214509,8.445660277560872,1.44e+30
113.0,15.921993140806455,8.434108831405794,1.44e+30
114.0,15.906699535606778,8.422630612567671,1.44e+30
115.0,15.89145812201648,8.411224243440643,1.44e+30
116.0,15.876268415926496,8.399888383395751,1.44e+30
117.0,15.861129943344416,8.388621727489895,1.44e+30
118.0,15.846042240101909,8.377423005230575,1.44e+30
119.0,15.831004851572908,8.366290979393586,1.44e+30
120.0,15.816017332402067,8.355224444890915,1.44e+30
121.0,15.801079246243035,8.34422222768633,1.44e+30
122.0,15.786190165506126,8.333283183756315,1.44e+30
123.0,15.771349671114958,8.322406198094024,1.44e+30
124.0,15.75655735227168,8.3115901837542,1.44e+30
125.0,15.741812806230405,8.300834080937024,1.44e+30
126.0,15.727115638078526,8.290136856109024,1.44e+30
127.0,15.712465460525543,8.27949750115926,1.44e+30
128.0,15.697861893699113,8.268915032589078,1.44e+30
129.0,15.68330456494801,8.258388490733905,1.44e+30
130.0,15.668793108651716,8.247916939015507,1.44e+30
131.0,15.654327166036358,8.237499463223351,1.44e+30
132.0,15.639906384996747,8.227135170823678,1.44e+30
133.0,15.625530419924258,8.216823190295058,1.44e+30
134.0,15.611198931540331,8.206562670489195,1.44e+30
135.0,15.596911586735352,8.196352780015838,1.44e+30
136.0,15.58266805841272,8.186192706650745,1.44e+30
137.0,15.568468025337877,8.176081656765627,1.44e+30
138.0,15.554311171992126,8.166018854779146,1.44e+30
139.0,15.540197188431033,8.156003542628032,1.44e+30
140.0,15.526125770147257,8.146034979257388,1.44e+30
141.0,15.512096617937617,8.136112440129468,1.44e+30
142.0,15.498109437774257,8.126235216750006,1.44e+30
143.0,15.484163940679737,8.116402616211433,1.44e+30
144.0,15.470259842605916,8.106613960752235,1.44e+30
145.0,15.456396864316481,8.096868587331777,1.44e+30
146.0,15.442574731272986,8.087165847219953,1.44e+30
147.0,15.428793173524273,8.077505105601029,1.44e+30
148.0,15.41505192559916,8.067885741191118,1.44e+30
149.0,15.40135072640227,8.058307145868714,1.44e+30
150.0,15.387689319112887,8.04876872431776,1.44e+30
151.0,15.374067451086734,8.039269893682732,1.44e+30
152.0,15.360484873760576,8.029810083235267,1.44e+30
153.0,15.346941342559541,8.020388734051899,1.44e+30
154.0,15.333436616807061,8.0110052987024,1.44e+30
155.0,15.319970459637359,8.001659240948365,1.44e+30
156.0,15.306542637910368,7.992350035451636,1.44e+30
157.0,15.293152922129027,7.983077167492137,1.44e+30
158.0,15.279801086358846,7.973840132694823,1.44e+30
159.0,15.266486908149696,7.964638436765332,1.44e+30
160.0,15.25321016845971,7.955471595234052,1.44e+30
161.0,15.239970651581256,7.946339133208266,1.44e+30
162.0,15.226768145068903,7.937240585132061,1.44e+30
163.0,15.213602439669309,7.928175494553736,1.44e+30
164.0,15.200473329252976,7.9191434139004215,1.44e+30
165.0,15.187380610747804,7.910143904259606,1.44e+30
166.0,15.174324084074396,7.9011765351674,1.44e+30
167.0,15.161303552083046,7.892240884403195,1.44e+30
168.0,15.148318820492367,7.883336537790557,1.44e+30
169.0,15.135369697829494,7.8744630890041005,1.44e+30
170.0,15.122455995371828,7.865620139382106,1.44e+30
171.0,15.10957752709026,7.856807297744757,1.44e+30
172.0,15.096734109593836,7.848024180217671,1.44e+30
173.0,15.083925562075816,7.8392704100606725,1.44e+30
174.0,15.071151706261082,7.830545617501528,1.44e+30
175.0,15.058412366354856,7.821849439574505,1.44e+30
176.0,15.045707368992689,7.813181519963591,1.44e+30
177.0,15.03303654319168,7.80454150885021,1.44e+30
178.0,15.020399720302889,7.795929062765273,1.44e+30
179.0,15.007796733964916,7.787343844445436,1.44e+30
180.0,14.995227420058589,7.77878552269337,1.44e+30
181.0,14.982691616662756,7.770253772242006,1.44e+30
182.0,14.970189164011126,7.761748273622503,1.44e+30
183.0,14.957719904450151,7.75326871303591,1.44e+30
184.0,14.945283682397891,7.744814782228367,1.44e+30
185.0,14.932880344303856,7.736386178369681,1.44e+30
186.0,14.920509738609784,7.727982603935278,1.44e+30
187.0,14.908171715711344,7.719603766591286,1.44e+30
188.0,14.895866127920716,7.711249379082769,1.44e+30
189.0,14.883592829430034,7.702919159124921,1.44e+30
190.0,14.871351676275676,7.6946128292971725,1.44e+30
191.0,14.859142526303366,7.686330116940114,1.44e+30
192.0,14.846965239134061,7.678070754055124,1.44e+30
193.0,14.834819676130623,7.669834477206624,1.44e+30
194.0,14.822705700365225,7.661621027426914,1.44e+30
195.0,14.810623176587496,7.653430150123439,1.44e+30
196.0,14.798571971193377,7.645261594988478,1.44e+30
197.0,14.786551952194653,7.637115115911129,1.44e+30
198.0,14.774562989189171,7.628990470891578,1.44e+30
199.0,14.762604953331703,7.620887421957493,1.44e+30
200.0,14.750677717305452,7.612805735082581,1.44e+30
201.0,14.738781155294166,7.604745180107168,1.44e+30
202.0,14.726915142954866,7.596705530660774,1.44e+30
203.0,14.71507955739115,7.588686564086604,1.44e+30
204.0,14.703274277127077,7.580688061367919,1.44e+30
205.0,14.691499182081609,7.572709807056231,1.44e+30
206.0,14.67975415354358,7.564751589201222,1.44e+30
207.0,14.668039074147217,7.55681319928242,1.44e+30
208.0,14.65635382784815,7.548894432142491,1.44e+30
209.0,14.644698299899947,7.540995085922166,1.44e+30
210.0,14.633072376831118,7.533114961996716,1.44e+30
211.0,14.621475946422613,7.525253864913973,1.44e+30
212.0,14.609908897685772,7.517411602333777,1.44e+30
213.0,14.598371120840731,7.509587984968901,1.44e+30
214.0,14.586862507295278,7.501782826527355,1.44e+30
215.0,14.575382949624125,7.493995943656019,1.44e+30
216.0,14.563932341548611,7.486227155885626,1.44e+30
217.0,14.552510577916818,7.47847628557699,1.44e+30
218.0,14.541117554684075,7.470743157868501,1.44e+30
219.0,14.529753168893857,7.463027600624809,1.44e+30
220.0,14.518417318659075,7.455329444386686,1.44e+30
221.0,14.507109903143723,7.447648522322039,1.44e+30
222.0,14.495830822544896,7.439984670178012,1.44e+30
223.0,14.484579978075159,7.432337726234193,1.44e+30
224.0,14.473357271945265,7.424707531256846,1.44e+30
225.0,14.46216260734721,7.417093928454188,1.44e+30
226.0,14.450995888437618,7.409496763432633,1.44e+30
227.0,14.439857020321442,7.401915884154038,1.44e+30
228.0,14.428745909035989,7.394351140893855,1.44e+30
229.0,14.417662461535249,7.38680238620022,1.44e+30
230.0,14.406606585674519,7.379269474853933,1.44e+30
231.0,14.39557819019533,7.371752263829304,1.44e+30
232.0,14.384577184710656,7.364250612255841,1.44e+30
233.0,14.373603479690399,7.3567643813807635,1.44e+30
234.0,14.362656986447153,7.349293434532326,1.44e+30
235.0,14.35173761712224,7.341837637083909,1.44e+30
236.0,14.340845284671996,7.3343968564188895,1.44e+30
237.0,14.329979902854326,7.3269709618962295,1.44e+30
238.0,14.3191413862155,7.319559824816814,1.44e+30
239.0,14.308329650077198,7.312163318390471,1.44e+30
240.0,14.29754461052379,7.304781317703693,1.44e+30
241.0,14.286847342280346,7.297441254918091,1.422370549900356e+30
242.0,14.276297157250465,7.290170027043116,1.4050285963211337e+30
243.0,14.265891373899322,7.282966718432592,1.387968291736767e+30
244.0,14.255627370799479,7.275830427419674,1.3711839309402566e+30
245.0,14.245502585055839,7.268760266112778,1.3546699470149067e+30
246.0,14.235514510777072,7.261755360192815,1.338420907435932e+30
247.0,14.225660697592012,7.25481484871189,1.3224315102972397e+30
248.0,14.215938749209565,7.247937883893508,1.3066965806588755e+30
249.0,14.20634632202077,7.241123630934419,1.2912110670108111e+30
250.0,14.196881123741623,7.234371267808179,1.2759700378489178e+30
251.0,14.187540912095384,7.227679985070502,1.2609686783591341e+30
252.0,14.17832349353312,7.221048985666442,1.2462022872059974e+30
253.0,14.169226721991238,7.2144774847395485,1.2316662734218558e+30
254.0,14.160248497684858,7.2079647094429475,1.2173561533932204e+30
255.0,14.151386765935886,7.201509898752473,1.203267547940857e+30
256.0,14.142639516034688,7.195112303281878,1.189396179490351e+30
257.0,14.134004780134305,7.188771185100135,1.175737869329998e+30
258.0,14.125480632176192,7.182485817550898,1.1622885349530008e+30
259.0,14.117065186846483,7.176255485074117,1.1490441874810677e+30
260.0,14.108756598561843,7.170079483029886,1.1360009291666116e+30
261.0,14.100553060483954,7.16395711752447,1.1231549509708684e+30
262.0,14.092452803561775,7.157887705238593,1.1105025302153401e+30
263.0,14.084454095600696,7.151870573257977,1.0980400283040785e+30
264.0,14.076555240357749,7.1459050589061235,1.0857638885144108e+30
265.0,14.068754576662082,7.139990509579373,1.0736706338538009e+30
266.0,14.061050477559908,7.134126282584251,1.0617568649806281e+30
267.0,14.053441349483178,7.128311744977047,1.0500192581867446e+30
268.0,14.045925631441248,7.122546273405707,1.038454563439752e+30
269.0,14.038501794234843,7.116829253953966,1.0270596024830162e+30
270.0,14.03116833969163,7.111160081987759,1.0158312669915102e+30
271.0,14.023923799922736,7.105538162003878,1.0047665167816465e+30
272.0,14.016766736599592,7.099962907480881,9.938623780733244e+29
273.0,14.009695740250475,7.094433740732235,9.831159418024848e+29
274.0,14.002709429576147,7.088950092761676,9.725243619825284e+29
275.0,13.995806450784027,7.083511403120788,9.620848541130066e+29
276.0,13.988985476940343,7.078117119768759,9.517946936340606e+29
277.0,13.982245207339695,7.072766698934338,9.41651214425128e+29
278.0,13.975584366891551,7.06745960497992,9.316518073464997e+29
279.0,13.969001705523135,7.062195310267807,9.217939188223526e+29
280.0,13.962495997598237,7.0569732950285555,9.120750494639357e+29
281.0,13.956066041351468,7.051793047231449,9.02492752731635e+29
282.0,13.949710658337505,7.0466540624570335,8.930446336346824e+29
283.0,13.94342869289488,7.041555843771729,8.837283474673251e+29
284.0,13.937219011623888,7.036497901604456,8.74541598580304e+29
285.0,13.9310805028782,7.031479753625298,8.654821391865397e+29
286.0,13.925012076269768,7.026500924626113,8.565477681999524e+29
287.0,13.919012662186665,7.021560946403174,8.477363301063894e+29
288.0,13.913081211323437,7.016659357641677,8.390457138656613e+29
289.0,13.907216694223647,7.011795703802228,8.304738518437261e+29
290.0,13.901418100834237,7.006969537009187,8.220187187740936e+29
291.0,13.895684440071362,7.002180415940886,8.136783307475526e+29
292.0,13.890014739397383,6.9974279057217,8.054507442293538e+29
293.0,13.884408044408687,6.9927115778159195,7.973340551030125e+29
294.0,13.87886341843402,6.988031009923434,7.893263977399215e+29
295.0,13.873379942143046,6.9833857858771555,7.81425944093993e+29
296.0,13.867956713164828,6.9787754955422105,7.736309028205749e+29
297.0,13.862592845715964,6.974199734716834,7.659395184189094e+29
298.0,13.857287470238084,6.96965810503495,7.5835007039743e+29
299.0,13.852039733044464,6.965150213870437,7.508608724612152e+29
300.0,13.846848795975484,6.960675674243003,7.434702717209353e+29
301.0,13.841713836062702,6.956234104725709,7.3617664792266e+29
302.0,13.836634045201276,6.951825129354052,7.28978412697904e+29
303.0,13.83160862983052,6.9474483775366505,7.218740088333195e+29
304.0,13.826636810622368,6.94310348396742,7.148619095594535e+29
305.0,13.821717822177511,6.9387900885393154,7.079406178580133e+29
306.0,13.816850912729016,6.934507836259538,7.011086657871018e+29
307.0,13.8120353438532,6.930256377166215,6.943646138238961e+29
308.0,13.807270390187567,6.926035366246515,6.877070502242656e+29
309.0,13.802555339155628,6.921844463356223,6.811345903988405e+29
310.0,13.79788949069839,6.917683333140641,6.746458763050537e+29
311.0,13.793272157012353,6.913551644956943,6.682395758547004e+29
312.0,13.788702662293826,6.909449072797818,6.619143823365696e+29
313.0,13.784180342489393,6.905375295216478,6.556690138537163e+29
314.0,13.779704545052368,6.901329995252949,6.49502212774961e+29
315.0,13.77527462870508,6.897312860361673,6.434127452002082e+29
316.0,13.770889963206805,6.8933235823403365,6.373994004391978e+29
317.0,13.766549929127233,6.889361857259972,6.314609905033081e+29
318.0,13.76225391762529,6.885427385396255,6.2559634961004506e+29
319.0,13.758001330233194,6.88151987116202,6.1980433369986066e+29
320.0,13.75379157864558,6.877639023040924,6.140838199649578e+29
321.0,13.7496240845136,6.873784553522302,6.084337063897488e+29
322.0,13.745498279243817,6.8699561790371355,6.0285291130264085e+29
323.0,13.741413603801803,6.866153619895137,5.973403729388387e+29
324.0,13.737369508520311,6.86237660022295,5.918950490138584e+29
325.0,13.733365452911887,6.858624847903398,5.8651591630745896e+29
326.0,13.729400905485814,6.85489809451583,5.812019702577053e+29
327.0,13.725475343569284,6.851196075277462,5.759522245648861e+29
328.0,13.721588253132674,6.8475185289857805,5.70765710805019e+29
329.0,13.717739128618826,6.8438651979619145,5.6564147805268075e+29
330.0,13.713927472776223,6.8402358279950235,5.6057859251291206e+29
331.0,13.710152796495981,6.836630168287622,5.5557613716194956e+29
332.0,13.706414618652515,6.833047971401891,5.506332113965507e+29
333.0,13.702712465947837,6.829488993206885,5.4574893069167724e+29
334.0,13.699045872759356,6.82595299282668,5.4092242626631706e+29
335.0,13.695414380991105,6.822439732589409,5.3615284475722396e+29
336.0,13.691817539928305,6.818948977977199,5.314393479003688e+29
337.0,13.688254906095187,6.815480497576942,5.267811122198928e+29
338.0,13.68472604311598,6.812034063031964,5.2217732872436894e+29
339.0,13.681230521578987,6.808609448994485,5.1762720261017645e+29
340.0,13.67776791890369,6.8052064330789275,5.1312995297180145e+29
341.0,13.674337819210772,6.801824795816035,5.0868481251888316e+29
342.0,13.670939813195014,6.798464320607755,5.042910272998294e+29
343.0,13.66757349800099,6.795124793682929,4.999478564318289e+29
344.0,13.66423847710148,6.791806004053736,4.956545718370956e+29
345.0,13.66093436017853,6.788507743472874,4.9141045798518314e+29
346.0,13.657660763007122,6.78522980639149,4.87214811641213e+29
347.0,13.654417307341358,6.781971989917839,4.830669416198621e+29
348.0,13.651203620803104,6.778734093776626,4.7896616854496525e+29
349.0,13.648019336773054,6.775515920269072,4.749118246145862e+29
350.0,13.644864094284125,6.772317274233659,4.7090325337141805e+29
351.0,13.641737537917148,6.769137963007514,4.6693980947837805e+29
352.0,13.638639317698788,6.765977796388512,4.630208584992639e+29
353.0,13.63556908900164,6.762836586597967,4.5914577668434504e+29
354.0,13.632526512446463,6.759714148243992,4.553139507607617e+29
355.0,13.62951125380647,6.756610298285469,4.515247777276138e+29
356.0,13.62652298391366,6.7535248559966465,4.477776646556191e+29
357.0,13.623561378567116,6.750457642932309,4.4407202849122835e+29
358.0,13.620626118443237,6.747408482893576,4.404072958650847e+29
359.0,13.617716889007845,6.744377201894242,4.367829029047204e+29
360.0,13.61483338043014,6.741363628127708,4.331982950513842e+29
361.0,13.611975287498447,6.73836759193447,4.296529268808988e+29
362.0,13.609142309537711,6.73538892577014,4.2614626192844734e+29
363.0,13.606334150328706,6.732427464174032,4.226777725171934e+29
364.0,13.603550518028912,6.729483043738247,4.192469395906395e+29
365.0,13.600791125095032,6.726555503077293,4.1585325254863265e+29
366.0,13.598055688207086,6.7236446827982235,4.12496209086929e+29
367.0,13.59534392819408,6.720750425471248,4.09175315040229e+29
368.0,13.592655569961178,6.7178725756008575,4.058900842286002e+29
369.0,13.589990342418375,6.715010979597428,4.0264003830720545e+29
370.0,13.587347978410607,6.712165485749294,3.994247066192562e+29
371.0,13.58472821464928,6.7093359441952725,3.9624362605211324e+29
372.0,13.58213079164519,6.706522206897677,3.9309634089645966e+29
373.0,13.579555453642792,6.70372412761575,3.899824027084722e+29
374.0,13.577001948555786,6.700941561879539,3.8690137017491896e+29
375.0,13.574470027904,6.698174366964226,3.838528089811145e+29
