Time,Mass,Radius,Lx
23.0,17.64555492954335,10.27,0.0
24.000200964630224,17.621575916883952,10.223863379637782,0.0
25.00040192926045,17.59792434144712,10.179635644343524,0.0
26.000602893890672,17.574582910998153,10.137160483584555,0.0
27.000803858520896,17.551535891674675,10.096299806714601,0.0
28.00100482315112,17.52876891532468,10.056931032438383,0.0
29.001205787781345,17.506268816676062,10.01894486261105,0.0
30.00140675241157,17.48402349485142,9.982243440327288,0.0
31.001607717041793,17.46202179489975,9.946738815525864,0.0
32.00180868167202,17.440253405900773,9.912351658625917,0.0
33.00200964630224,17.418708772879153,9.879010175695024,0.0
34.002210610932465,17.397379020296064,9.846649188495762,0.0
35.00241157556269,17.376255885301386,9.815209350293797,0.0
36.002612540192914,17.35533165925855,9.784636474128426,0.0
37.00281350482314,17.33459913631588,9.754880954774462,0.0
38.00301446945336,17.31405156800815,9.725897269174768,0.0
39.003215434083586,17.293682623041494,9.697643542926917,0.0
40.00341639871381,17.2734863515524,9.670081172637065,0.0
41.003617363344034,17.253457153243772,9.643174495737991,0.0
42.00381832797426,17.233589748893404,9.616890500804526,0.0
43.00401929260448,17.213879154806232,9.591198572562032,0.0
44.00422025723471,17.194320659844948,9.566070266730044,0.0
45.00442122186493,17.174909804726195,9.541479110617367,0.0
46.004622186495155,17.15564236331353,9.51740042602136,0.0
47.00482315112538,17.136514325675474,9.493811171510064,0.0
48.0050241157556,17.117521882708115,9.4706898016017,0.0
49.00522508038583,17.098661412148257,9.44801614071982,0.0
50.00542604501605,17.07992946582561,9.425771270106065,0.0
51.005627009646275,17.061322758021685,9.40393742612792,0.0
52.0058279742765,17.042838154819552,9.382497908634011,0.0
53.006028938906724,17.024472664342703,9.361436998191431,0.0
54.00622990353695,17.00622342779344,9.340739881194091,0.0
55.00643086816717,16.988087711211733,9.320392581962652,0.0
56.006631832797396,16.97006289788459,9.300381901068889,0.0
57.00683279742762,16.952146481343906,9.280695359213677,0.0
58.007033762057844,16.93433605889767,9.26132114607049,0.0
59.00723472668807,16.91662932564539,9.242248073577509,0.0
60.00743569131829,16.899024068933926,9.223465533223205,0.0
61.00763665594852,16.88151816321455,9.204963456923373,0.0
62.00783762057874,16.864109565266055,9.186732281134141,0.0
63.008038585208965,16.846796309752406,9.168762913885685,0.0
64.00823954983919,16.82957650508659,9.151046704456636,0.0
65.00844051446941,16.812448329575062,9.133575415439855,0.0
66.00864147909964,16.795410027819795,9.116341196977428,0.0
67.00884244372986,16.778459907357014,9.099336562966155,0.0
68.00904340836009,16.761596335513797,9.08255436905591,0.0
69.00924437299031,16.744817736465418,9.065987792281497,0.0
70.00944533762053,16.728122588477866,9.049630312184938,0.0
71.00964630225076,16.711509421321455,9.033475693299467,0.0
72.00984726688098,16.6949768138426,9.017517968879359,0.0
73.0100482315112,16.67852339168207,9.001751425770918,0.0
74.01024919614143,16.662147825128965,8.98617059033019,0.0
75.01045016077165,16.645848827100647,8.970770215301812,0.0
76.01065112540188,16.629625151239622,8.955545267581556,0.0
77.0108520900321,16.613475590119197,8.94049091679224,0.0
78.01105305466233,16.59739897355031,8.925602524609145,0.0
79.01125401929255,16.581394166982644,8.910875634776774,0.0
80.01145498392277,16.56546006999364,8.896305963764098,0.0
81.011655948553,16.549595614859538,8.881889392009965,0.0
82.01185691318322,16.533799765203007,8.86762195571461,0.0
83.01205787781345,16.51807151471244,8.853499839136994,0.0
84.01225884244367,16.50240988592823,8.839519367361104,0.0
85.0124598070739,16.486813929091817,8.825676999497414,0.0
86.01266077170412,16.47128272105352,8.811969322288578,0.0
87.01286173633434,16.455815364235544,8.798393044090853,0.0
88.01306270096457,16.440410985646743,8.784944989205208,0.0
89.01326366559479,16.425068735946002,8.771622092533974,0.0
90.01346463022502,16.40978778855133,8.758421394540997,0.0
91.01366559485524,16.394567338791948,8.74534003649481,0.0
92.01386655948546,16.379406603100822,8.732375255976047,0.0
93.01406752411569,16.36430481824534,8.719524382631715,0.0
94.01426848874591,16.3492612405939,8.706784834160237,0.0
95.01446945337614,16.33427514541637,8.694154112512413,0.0
96.01467041800636,16.319345826216562,8.681629800294575,0.0
97.01487138263658,16.304472594094864,8.669209557361127,0.0
98.01507234726681,16.289654777139436,8.656891117584719,0.0
99.01527331189703,16.274891719844362,8.644672285793032,0.0
100.01547427652726,16.260182782553354,8.632550934862003,0.0
101.01567524115748,16.245527340927584,8.620525002956036,0.0
102.0158762057877,16.230924785436414,8.608592490906355,0.0
103.01607717041793,16.216374520869802,8.59675145971935,0.0
104.01627813504815,16.20187596587127,8.585000028207194,0.0
105.01647909967838,16.187428552490374,8.573336370733719,0.0
106.0166800643086,16.17303172575367,8.56175871506881,0.0
107.01688102893883,16.15868494325327,8.550265340345177,0.0
108.01708199356905,16.14438767475209,8.538854575111682,0.0
109.01728295819927,16.130139401804964,8.527524795477815,0.0
110.0174839228295,16.115939617394865,8.516274423344287,0.0
111.01768488745972,16.101787825583468,8.50510192471492,0.0
112.01788585208995,16.0876835411754,8.494005808085499,0.0
113.01808681672017,16.073626289395495,8.482984622905342,0.0
114.0182877813504,16.05961560557845,8.47203695810774,0.0
115.01848874598062,16.045651034870314,8.4611614407056,0.0
116.01868971061084,16.031732131941222,8.45035673444881,0.0
117.01889067524107,16.017858460708908,8.439621538540203,0.0
118.01909163987129,16.004029594072463,8.428954586406983,0.0
119.01929260450152,15.990245113655888,8.418354644524824,0.0
120.01949356913174,15.976504609561008,8.407820511291945,0.0
121.01969453376196,15.962807680129327,8.397351015950655,0.0
122.01989549839219,15.949153931712418,8.38694501755396,0.0
123.02009646302241,15.93554297845049,8.376601403975021,0.0
124.02029742765264,15.921974442058769,8.36631909095735,0.0
125.02049839228286,15.908447951621355,8.356097021203729,0.0
126.02069935691308,15.894963143392243,8.345934163502028,0.0
127.02090032154331,15.88151966060319,8.33582951188609,0.0
128.02110128617355,15.86811715327816,8.325782084830033,0.0
129.02130225080379,15.854755278054043,8.315790924474422,0.0
130.02150321543402,15.841433698007432,8.30585509588274,0.0
131.02170418006426,15.828152082487161,8.295973686326821,0.0
132.0219051446945,15.8149101069524,8.286145804599869,0.0
133.02210610932474,15.801707452816071,8.27637058035578,0.0
134.02230707395498,15.788543807293378,8.266647163473621,0.0
135.02250803858522,15.775418863255236,8.256974723446081,0.0
136.02270900321545,15.762332319086418,8.247352448790831,0.0
137.0229099678457,15.749283878548223,8.237779546483791,0.0
138.02311093247593,15.73627325064549,8.228255241413311,0.0
139.02331189710617,15.72330014949781,8.21877877585437,0.0
140.0235128617364,15.710364294214738,8.209349408961886,0.0
141.02371382636665,15.697465408774885,8.19996641628236,0.0
142.02391479099688,15.68460322190873,8.19062908928301,0.0
143.02411575562712,15.671777466985004,8.181336734897716,0.0
144.02431672025736,15.65898788190053,8.172088675088972,0.0
145.0245176848876,15.646234208973373,8.162884246425277,0.0
146.02471864951784,15.633516194839206,8.153722799673243,0.0
147.02491961414808,15.620833590350724,8.144603699403813,0.0
148.0251205787783,15.608186150480053,8.135526323612082,0.0
149.02532154340855,15.59557363422401,8.126490063350053,0.0
150.0255225080388,15.582995804512114,8.117494322371899,0.0
151.02572347266903,15.570452428117273,8.108538516791166,0.0
152.02592443729927,15.557943275569016,8.099622074749458,0.0
153.0261254019295,15.545468121069222,8.090744436096166,0.0
154.02632636655974,15.533026742410222,8.081905052078753,0.0
155.02652733118998,15.520618920895211,8.073103385043229,0.0
156.02672829582022,15.508244441260894,8.06433890814441,0.0
157.02692926045046,15.49590309160227,8.055611105065536,0.0
158.0271302250807,15.483594663299508,8.046919469746937,0.0
159.02733118971094,15.471318950946813,8.038263506123416,0.0
160.02753215434117,15.45907575228325,8.029642727869922,0.0
161.0277331189714,15.446864868125422,8.021056658155313,0.0
162.02793408360165,15.434686102301985,8.01250482940382,0.0
163.0281350482319,15.422539261589895,8.003986783063981,0.0
164.02833601286213,15.410424155652358,7.995502069384726,0.0
165.02853697749237,15.398340596978423,7.987050247198374,0.0
166.0287379421226,15.386288400824162,7.978630883710268,0.0
167.02893890675284,15.37426738515538,7.970243554294848,0.0
168.02913987138308,15.362277370591817,7.961887842297843,0.0
169.02934083601332,15.350318180352792,7.953563338844486,0.0
170.02954180064356,15.33838964020423,7.945269642653395,0.0
171.0297427652738,15.326491578407056,7.937006359856046,0.0
172.02994372990403,15.314623825666883,7.928773103821555,0.0
173.03014469453427,15.302786215084977,7.9205694949866015,0.0
174.0303456591645,15.29097858211044,7.9123951606903535,0.0
175.03054662379475,15.279200764493602,7.904249735014151,0.0
176.030747588425,15.267452602240542,7.896132858625851,0.0
177.03094855305523,15.255733937568758,7.888044178628618,0.0
178.03114951768546,15.244044614863892,7.879983348414054,0.0
179.0313504823157,15.232384480637537,7.871950027519473,0.0
180.03155144694594,15.220753383486041,7.86394388148924,0.0
181.03175241157618,15.209151174050325,7.855964581739958,0.0
182.03195337620642,15.19757770497664,7.848011805429467,0.0
183.03215434083666,15.186032830878283,7.840085235329433,0.0
184.0323553054669,15.174516408298196,7.832184559701496,0.0
185.03255627009713,15.163028295672463,7.824309472176791,0.0
186.03275723472737,15.151568353294657,7.8164596716387695,0.0
187.0329581993576,15.140136443281008,7.8086348621092085,0.0
188.03315916398785,15.128732429536395,7.800834752637282,0.0
189.03336012861809,15.117356177721108,7.793059057191636,0.0
190.03356109324832,15.10600755521838,7.785307494555321,0.0
191.03376205787856,15.094686431102657,7.777579788223552,0.0
192.0339630225088,15.083392676108584,7.769875666304129,0.0
193.03416398713904,15.072126162600698,7.762194861420513,0.0
194.03436495176928,15.060886764543797,7.754537110617427,0.0
195.03456591639952,15.04967435747397,7.746902155268893,0.0
196.03476688102975,15.038488818470277,7.739289740988692,0.0
197.03496784566,15.027330026127045,7.731699617543088,0.0
198.03516881029023,15.016197860526782,7.7241315387658105,0.0
199.03536977492047,15.005092203213682,7.716585262475208,0.0
200.0355707395507,14.994012937167705,7.709060550393485,0.0
201.03577170418095,14.982959946779218,7.701557168067993,0.0
202.03597266881118,14.971933117824184,7.694074884794492,0.0
203.03617363344142,14.96093233743989,7.686613473542325,0.0
204.03637459807166,14.94995749410118,7.679172710881458,0.0
205.0365755627019,14.939008477597202,7.671752376911325,0.0
206.03677652733214,14.928085179008644,7.66435225519141,0.0
207.03697749196238,14.917187490685453,7.656972132673559,0.0
208.0371784565926,14.906315306225016,7.649611799635901,0.0
209.03737942122285,14.895468520450793,7.642271049618406,0.0
210.0375803858531,14.8846470293914,7.634949679359977,0.0
211.03778135048333,14.873850730260129,7.627647488737068,0.0
212.03798231511357,14.863079521434866,7.6203642807037415,0.0
213.0381832797438,14.852333302438447,7.613099861233188,0.0
214.03838424437404,14.841611973919399,7.60585403926061,0.0
215.03858520900428,14.830915437633072,7.598626626627434,0.0
216.03878617363452,14.820243596423156,7.59141743802687,0.0
217.03898713826476,14.809596354203569,7.584226290950699,0.0
218.039188102895,14.7989736159407,7.57705300563733,0.0
219.03938906752524,14.788375287636018,7.5698974050210435,0.0
220.03959003215547,14.777801276309015,7.562759314682385,0.0
221.0397909967857,14.767251489980486,7.555638562799723,0.0
222.03999196141595,14.756725837656147,7.548534980101902,0.0
223.0401929260462,14.74622422931056,7.541448399821958,0.0
224.04039389067643,14.735746575871387,7.534378657651882,0.0
225.04059485530667,14.72529278920393,7.527325591698416,0.0
226.0407958199369,14.714862782095988,7.520289042439819,0.0
227.04099678456714,14.704456468242991,7.513268852683595,0.0
228.04119774919738,14.69407376223343,7.506264867525179,0.0
229.04139871382762,14.683714579534549,7.499276934307513,0.0
230.04159967845786,14.673378836478332,7.492304902581514,0.0
231.0418006430881,14.66306645024773,7.485348624067418,0.0
232.04200160771833,14.652777338863167,7.478407952616944,0.0
233.04220257234857,14.642511421169285,7.471482744176297,0.0
234.0424035369788,14.632268616821946,7.4645728567499745,0.0
235.04260450160905,14.62204884627547,7.457678150365307,0.0
236.0428054662393,14.61185203077011,7.450798487037824,0.0
237.04300643086953,14.601678092319764,7.443933730737292,0.0
238.04320739549976,14.591526953699901,7.437083747354514,0.0
239.04340836013,14.581398538435723,7.430248404668811,0.0
240.04360932476024,14.571293589109697,7.423427914918568,0.0
241.04381028939048,14.561271192907645,7.4166469733737355,0.0
242.04401125402072,14.551381535747312,7.409926743043258,0.0
243.04421221865096,14.541622274485565,7.4032664320614305,0.0
244.0444131832812,14.531991117080032,7.396665260736183,0.0
245.04461414791143,14.522485821278975,7.390122461358754,0.0
246.04481511254167,14.513104193349237,7.383637278015424,0.0
247.0450160771719,14.503844086841069,7.377208966401451,0.0
248.04521704180215,14.494703401388634,7.370836793637137,0.0
249.04541800643239,14.485680081545071,7.364520038086148,0.0
250.04561897106262,14.476772115651011,7.358257989176076,0.0
251.04581993569286,14.467977534735478,7.352049947221245,0.0
252.0460209003231,14.459294411448171,7.345895223247817,0.0
253.04622186495334,14.450720859022113,7.339793138821193,0.0
254.04642282958358,14.442255030265727,7.3337430258757195,0.0
255.04662379421382,14.433895116583415,7.327744226546724,0.0
256.046824758844,14.425639347023735,7.321796093004858,0.0
257.04702572347423,14.417485987354329,7.31589798729277,0.0
258.04722668810444,14.409433339162769,7.31004928116411,0.0
259.04742765273465,14.40147973898249,7.304249355924837,0.0
260.04762861736486,14.393623557443075,7.298497602276855,0.0
261.0478295819951,14.385863198444106,7.292793420163964,0.0
262.0480305466253,14.37819709835187,7.287136218620077,0.0
263.0482315112555,14.37062372521821,7.281525415619763,0.0
264.0484324758857,14.363141578020848,7.275960437931044,0.0
265.0486334405159,14.355749185924532,7.270440720970454,0.0
266.0488344051461,14.348445107562346,7.264965708660334,0.0
267.04903536977633,14.341227930336597,7.2595348532883825,0.0
268.04923633440654,14.334096269738675,7.254147615369391,0.0
269.04943729903675,14.32704876868731,7.248803463509168,0.0
270.04963826366696,14.32008409688468,7.2435018742706525,0.0
271.0498392282972,14.313200950189813,7.238242332042164,0.0
272.0500401929274,14.306398050008804,7.23302432890779,0.0
273.0502411575576,14.299674142701296,7.227847364519858,0.0
274.0504421221878,14.293027999002774,7.2227109459735175,0.0
275.050643086818,14.2864584134622,7.217614587683363,0.0
276.0508440514482,14.279964203894504,7.212557811262101,0.0
277.05104501607843,14.273544210847545,7.207540145401222,0.0
278.05124598070864,14.267197297083055,7.2025611257536575,0.0
279.05144694533885,14.260922347071203,7.197620294818403,0.0
280.05164790996906,14.25471826649836,7.1927172018270795,0.0
281.0518488745993,14.24858398178767,7.187851402632386,0.0
282.0520498392295,14.24251843963208,7.183022459598458,0.0
283.0522508038597,14.236520606539443,7.178229941493072,0.0
284.0524517684899,14.23058946838935,7.173473423381688,0.0
285.0526527331201,14.224724030001369,7.168752486523285,0.0
286.0528536977503,14.218923314714331,7.164066718268002,0.0
287.05305466238053,14.21318636397638,7.159415711956493,0.0
288.05325562701074,14.207512236945448,7.154799066821058,0.0
289.05345659164095,14.201900010099887,7.150216387888435,0.0
290.05365755627116,14.196348776858938,7.145667285884288,0.0
291.0538585209014,14.190857647212786,7.1411513771393444,0.0
292.0540594855316,14.185425747361904,7.1366682834971495,0.0
293.0542604501618,14.18005221936545,7.1322176322234245,0.0
294.054461414792,14.17473622079844,7.1277990559169915,0.0
295.0546623794222,14.169476924417463,7.123412192422265,0.0
296.0548633440524,14.164273517834694,7.11905668474324,0.0
297.05506430868263,14.159125203199974,7.11473218095901,0.0
298.05526527331284,14.154031196890736,7.110438334140719,0.0
299.05546623794305,14.148990729209563,7.106174802270008,0.0
300.05566720257326,14.144003044089144,7.1019412481588535,0.0
301.05586816720347,14.139067398804459,7.097737339370822,0.0
302.0560691318337,14.13418306369196,7.093562748143697,0.0
303.0562700964639,14.129349321875592,7.089417151313473,0.0
304.0564710610941,14.124565468999426,7.085300230239664,0.0
305.0566720257243,14.119830812966761,7.0812116707319355,0.0
306.0568729903545,14.115144673685494,7.077151162978012,0.0
307.05707395498473,14.110506382819603,7.073118401472856,0.0
308.05727491961494,14.105915283546569,7.069113084949093,0.0
309.05747588424515,14.101370730320582,7.065134916308644,0.0
310.05767684887536,14.096872088641375,7.061183602555573,0.0
311.05787781350557,14.092418734828525,7.0572588547301045,0.0
312.0580787781358,14.088010055801103,7.053360387843789,0.0
313.058279742766,14.08364544886249,7.049487920815833,0.0
314.0584807073962,14.079324321490256,7.045641176410525,0.0
315.0586816720264,14.075046091130961,7.04181988117576,0.0
316.0588826366566,14.07081018499972,7.0380237653826505,0.0
317.05908360128683,14.066616039884456,7.034252562966184,0.0
318.05928456591704,14.062463101954675,7.030506011466944,0.0
319.05948553054725,14.058350826574658,7.026783851973816,0.0
320.05968649517746,14.054278678120973,7.023085829067732,0.0
321.05988745980767,14.050246129804162,7.019411690766374,0.0
322.0600884244379,14.046252663494522,7.01576118846986,0.0
323.0602893890681,14.042297769551865,7.012134076907369,0.0
324.0604903536983,14.038380946659142,7.008530114084708,0.0
325.0606913183285,14.03450170165985,7.0049490612327805,0.0
326.0608922829587,14.030659549399127,7.001390682756973,0.0
327.06109324758893,14.026854012568405,6.997854746187404,0.0
328.06129421221914,14.02308462155359,6.994341022130051,0.0
329.06149517684935,14.019350914286617,6.990849284218729,0.0
330.06169614147956,14.015652436100341,6.98737930906789,0.0
331.06189710610977,14.011988739586656,6.983930876226269,0.0
332.06209807074,14.008359384457762,6.980503768131301,0.0
333.0622990353702,14.004763937410518,6.977097770064352,0.0
334.0625000000004,14.001201971993774,6.9737126701067265,0.0
335.0627009646306,13.997673068478644,6.970348259096411,0.0
336.0629019292608,13.994176813731608,6.967004330585599,0.0
337.063102893891,13.990712801090407,6.963680680798925,0.0
338.06330385852124,13.987280630242637,6.960377108592427,0.0
339.06350482315145,13.98387990710699,6.957093415413217,0.0
340.06370578778166,13.98051024371707,6.953829405259848,0.0
341.06390675241187,13.977171258107726,6.950584884643346,0.0
342.0641077170421,13.973862574203828,6.947359662548942,0.0
343.0643086816723,13.970583821711447,6.944153550398427,0.0
344.0645096463025,13.967334636011357,6.940966362013173,0.0
345.0647106109327,13.96411465805482,6.937797913577777,0.0
346.0649115755629,13.960923534261596,6.934648023604327,0.0
347.0651125401931,13.957760916420114,6.931516512897291,0.0
348.06531350482334,13.954626461589761,6.928403204518977,0.0
349.06551446945355,13.951519832005241,6.925307923755609,0.0
350.06571543408376,13.948440694982938,6.922230498083957,0.0
351.06591639871397,13.945388722829263,6.919170757138556,0.0
352.0661173633442,13.942363592750901,6.916128532679448,0.0
353.0663183279744,13.939364986766956,6.913103658560511,0.0
354.0665192926046,13.936392591622905,6.910095970698286,0.0
355.0667202572348,13.933446098706352,6.907105307041354,0.0
356.066921221865,13.930525203964521,6.904131507540214,0.0
357.0671221864952,13.927629607823459,6.901174414117683,0.0
358.06732315112544,13.924759015108895,6.898233870639771,0.0
359.06752411575565,13.921913134968731,6.895309722887077,0.0
360.06772508038586,13.919091680797116,6.89240181852662,0.0
