Time,Mass,Radius,Lx
23.0,32.763096042130094,6.41,0.0
33.014084507042256,32.72053594478306,6.40472864557359,0.0
43.02816901408451,32.68948748386067,6.400881496804272,0.0
53.04225352112677,32.66504500941944,6.3978519380708025,0.0
63.05633802816902,32.6448917943588,6.395353391967251,0.0
73.07042253521128,32.62774873198968,6.3932275914897145,0.0
83.08450704225353,32.612834735277545,6.391377869522684,0.0
93.09859154929579,32.59963778611049,6.389740846970287,0.0
103.11267605633805,32.58780405178936,6.388272718241391,0.0
113.1267605633803,32.5770788035985,6.38694194256697,0.0
123.14084507042256,32.56727256853462,6.385725056160175,0.0
133.1549295774648,32.558240596567344,6.384604131484336,0.0
143.16901408450704,32.549869815044346,6.38356516278816,0.0
153.18309859154928,32.5420702164005,6.382597000168936,0.0
163.19718309859152,32.5347689862263,6.381690622733938,0.0
173.21126760563376,32.52790638792634,6.380838629147811,0.0
183.225352112676,32.521432808992074,6.380034871948179,0.0
193.23943661971825,32.515306596470516,6.379274189545188,0.0
203.2535211267605,32.50949244144559,6.378552206181355,0.0
213.26760563380273,32.50396015351111,6.377865180170749,0.0
223.28169014084497,32.4986837174757,6.377209887079791,0.0
233.2957746478872,32.49364055774698,6.3765835286214365,0.0
243.30985915492946,32.48881095784798,6.375983660757977,0.0
253.3239436619717,32.484177597401455,6.375408136349709,0.0
263.33802816901397,32.47972517917058,6.374855058955799,0.0
273.3521126760562,32.475440125927186,6.374322745282774,0.0
283.36619718309845,32.471310332028175,6.37380969440858,0.0
293.3802816901407,32.467324958266545,6.373314562366425,0.0
303.39436619718293,32.46347426125721,6.372836141006189,0.0
313.4084507042252,32.459749450609834,6.372373340297711,0.0
323.4225352112674,32.45614256863026,6.371925173424793,0.0
333.43661971830966,32.45264638841763,6.3714907441580175,0.0
343.4507042253519,32.449254327082265,6.371069236100808,0.0
353.46478873239414,32.4459603714702,6.370659903484897,0.0
363.4788732394364,32.442759014292264,6.3702620632548905,0.0
373.4929577464786,32.439645198956974,6.369875088231196,0.0
383.50704225352086,32.43661427172183,6.369498401179748,0.0
393.5211267605631,32.43366194002839,6.369131469647941,0.0
403.53521126760535,32.430784236086495,6.368773801451003,0.0
413.5492957746476,32.427977484933734,6.368424940712926,0.0
423.56338028168983,32.425238276326084,6.368084464382162,0.0
433.5774647887321,32.42256343992138,6.3677519791553765,0.0
443.5915492957743,32.41995002330342,6.3674271187532465,0.0
453.60563380281656,32.41739527246527,6.367109541501035,0.0
463.6197183098588,32.41489661442893,6.366798928173931,0.0
473.63380281690104,32.41245164172671,6.366494980073133,0.0
483.6478873239433,32.41005809851015,6.3661974173036695,0.0
493.6619718309855,32.40771386808586,6.365905977229063,0.0
503.67605633802776,32.40541696170601,6.365620413081524,0.0
513.69014084507,32.403165508464916,6.365340492709245,0.0
523.7042253521123,32.40095774617328,6.36506599744488,0.0
533.7183098591546,32.39879201309883,6.364796721081429,0.0
543.7323943661969,32.396666740476356,6.364532468943501,0.0
553.7464788732392,32.39458044570295,6.3642730570435075,0.0
563.7605633802815,32.39253172614436,6.364018311313635,0.0
573.7746478873238,32.39051925348797,6.363768066905568,0.0
583.7887323943661,32.38854176858536,6.363522167550915,0.0
593.8028169014084,32.38659807673455,6.363280464976154,0.0
603.8169014084507,32.38468704335759,6.363042818366576,0.0
613.830985915493,32.382807590034474,6.362809093874425,0.0
623.8450704225353,32.38095869085868,6.362579164166901,0.0
633.8591549295776,32.37913936908352,6.362352908010235,0.0
643.8732394366199,32.37734869403196,6.362130209886417,0.0
653.8873239436622,32.37558577824541,6.361910959639573,0.0
663.9014084507045,32.37384977484965,6.361695052149246,0.0
673.9154929577468,32.372139875118414,6.361482387028206,0.0
683.9295774647891,32.37045530621696,6.361272868342565,0.0
693.9436619718314,32.36879532911011,6.361066404352293,0.0
703.9577464788737,32.367159236620374,6.360862907270351,0.0
713.971830985916,32.36554635162359,6.360662293038863,0.0
723.9859154929583,32.36395602537045,6.3604644811209115,0.0
734.0000000000006,32.362387635923554,6.360269394306659,0.0
744.0140845070429,32.36084058670062,6.360076958532627,0.0
754.0281690140852,32.35931430511525,6.359887102713088,0.0
764.0422535211275,32.35780824130757,6.359699758582583,0.0
774.0563380281698,32.35632186695769,6.359514860548734,0.0
784.0704225352121,32.35485467417554,6.35933234555451,0.0
794.0845070422544,32.353406174461355,6.3591521529492665,0.0
804.0985915492967,32.35197589773139,6.358974224367875,0.0
814.112676056339,32.35056339140408,6.358798503617341,0.0
824.1267605633813,32.34916821954213,6.358624936570369,0.0
834.1408450704236,32.34778996204658,6.358453471065369,0.0
844.1549295774659,32.34642821389901,6.358284056812436,0.0
854.1690140845081,32.34508258444852,6.358116645304887,0.0
864.1830985915504,32.34375269674039,6.357951189735956,0.0
874.1971830985927,32.34243818688342,6.357787644920301,0.0
884.211267605635,32.34113870345345,6.357625967219995,0.0
894.2253521126773,32.33985390693047,6.3574661144746765,0.0
904.2394366197196,32.33858346916716,6.357308045935605,0.0
914.2535211267619,32.33732707288676,6.35715172220336,0.0
924.2676056338042,32.33608441120833,6.356997105168928,0.0
934.2816901408465,32.33485518719766,6.35684415795797,0.0
944.2957746478888,32.33363911344213,6.356692844878081,0.0
954.3098591549311,32.332435911648076,6.35654313136881,0.0
964.3239436619734,32.331245312259185,6.356394983954318,0.0
974.3380281690157,32.33006705409465,6.356248370198464,0.0
984.352112676058,32.328900884005854,6.35610325866221,0.0
994.3661971831003,32.327746556550494,6.3559596188631735,0.0
1004.3802816901426,32.3266042021757,6.355817467091835,0.0
1014.3943661971849,32.32547754346284,6.355677266643904,0.0
1024.408450704227,32.3243668812272,6.355539055028174,0.0
1034.4225352112694,32.323271834548166,6.355402784916957,0.0
1044.4366197183117,32.32219203516219,6.3552684105542685,0.0
1054.450704225354,32.321127126925404,6.355135887689127,0.0
1064.4647887323963,32.320076765303966,6.355005173512299,0.0
1074.4788732394386,32.31904061689034,6.354876226596254,0.0
1084.492957746481,32.318018358944094,6.3547490068381745,0.0
1094.5070422535232,32.317009678955635,6.354623475405795,0.0
1104.5211267605655,32.31601427423166,6.354499594685951,0.0
1114.5352112676078,32.315031851500954,6.3543773282356435,0.0
1124.54929577465,32.3140621265394,6.354256640735486,0.0
1134.5633802816924,32.31310482381313,6.354137497945416,0.0
1144.5774647887347,32.31215967613874,6.354019866662502,0.0
1154.591549295777,32.31122642435968,6.353903714680777,0.0
1164.6056338028193,32.31030481703779,6.3537890107529424,0.0
1174.6197183098616,32.30939461015931,6.35367572455387,0.0
1184.6338028169039,32.30849556685444,6.353563826645786,0.0
1194.6478873239462,32.30760745712979,6.35345328844505,0.0
1204.6619718309885,32.306730057612995,6.3533440821904525,0.0
1214.6760563380308,32.30586315130883,6.353236180912931,0.0
1224.690140845073,32.30500652736627,6.3531295584066525,0.0
1234.7042253521154,32.304159980855864,6.353024189201366,0.0
1244.7183098591577,32.303323312556934,6.352920048535985,0.0
1254.7323943662,32.302496328754,6.352817112333309,0.0
1264.7464788732423,32.30167884104213,6.352715357175847,0.0
1274.7605633802846,32.300870666140554,6.352614760282688,0.0
1284.7746478873269,32.30007162571429,6.352515299487339,0.0
1294.7887323943692,32.29928154620329,6.352416953216514,0.0
1304.8028169014115,32.29850025865877,6.35231970046981,0.0
1314.8169014084538,32.29772759858634,6.352223520800225,0.0
1324.830985915496,32.29696340579566,6.352128394295487,0.0
1334.8450704225384,32.2962075242562,6.35203430156015,0.0
1344.8591549295807,32.295459801958955,6.351941223698408,0.0
1354.873239436623,32.29472009078369,6.351849142297617,0.0
1364.8873239436653,32.293988246371526,6.351758039412467,0.0
1374.9014084507075,32.293264128002626,6.3516678975498,0.0
1384.9154929577498,32.292547598478684,6.351578699654001,0.0
1394.9295774647921,32.291838524010046,6.351490429092993,0.0
1404.9436619718344,32.29113677410724,6.351403069644755,0.0
1414.9577464788767,32.29044222147667,6.351316605484377,0.0
1424.971830985919,32.28975474192037,6.351231021171598,0.0
1434.9859154929613,32.289074214239534,6.351146301638834,0.0
1445.0000000000036,32.288400520141735,6.351062432179645,0.0
1455.014084507046,32.287733544151614,6.35097939843765,0.0
1465.0281690140882,32.28707317352491,6.350897186395845,0.0
1475.0422535211305,32.28641929816571,6.350815782366326,0.0
1485.0563380281728,32.28577181054673,6.35073517298038,0.0
1495.0704225352151,32.28513060563247,6.350655345178951,0.0
1505.0845070422574,32.284495580805256,6.350576286203445,0.0
1515.0985915492997,32.28386663579389,6.35049798358687,0.0
1525.112676056342,32.283243672604875,6.35042042514529,0.0
1535.1267605633843,32.2826265954561,6.350343598969592,0.0
1545.1408450704266,32.282015310712865,6.350267493417535,0.0
1555.154929577469,32.28140972682617,6.350192097106086,0.0
1565.1690140845112,32.28080975427316,6.3501173989040165,0.0
1575.1830985915535,32.28021530549962,6.350043387924771,0.0
1585.1971830985958,32.27962629486449,6.349970053519558,0.0
1595.211267605638,32.27904263858626,6.3498973852707,0.0
1605.2253521126804,32.27846425469119,6.349825372985204,0.0
1615.2394366197227,32.2778910629633,6.349754006688539,0.0
1625.253521126765,32.277322984896045,6.349683276618639,0.0
1635.2676056338073,32.276759943645594,6.349613173220095,0.0
1645.2816901408496,32.27620186398567,6.349543687138546,0.0
1655.295774647892,32.27564867226388,6.349474809215254,0.0
1665.3098591549342,32.27510029635948,6.349406530481856,0.0
1675.3239436619765,32.274556665642564,6.34933884215529,0.0
1685.3380281690188,32.27401771093446,6.3492717356328825,0.0
1695.352112676061,32.273483364469556,6.349205202487597,0.0
1705.3661971831034,32.27295355985824,6.349139234463434,0.0
1715.3802816901457,32.27242823205106,6.3490738234709765,0.0
1725.394366197188,32.271907317304056,6.349008961583081,0.0
1735.4084507042303,32.27139075314509,6.3489446410307,0.0
1745.4225352112726,32.27087847834134,6.348880854198833,0.0
1755.436619718315,32.270370432867736,6.348817593622614,0.0
1765.4507042253572,32.26986655787641,6.348754851983511,0.0
1775.4647887323995,32.26936679566707,6.3486926221056414,0.0
1785.4788732394418,32.268871089658276,6.348630896952213,0.0
1795.492957746484,32.26837938435962,6.348569669622055,0.0
1805.5070422535264,32.267891625344724,6.348508933346271,0.0
1815.5211267605687,32.26740775922506,6.348448681484982,0.0
1825.535211267611,32.26692773362454,6.34838890752417,0.0
1835.5492957746533,32.266451497154904,6.348329605072619,0.0
1845.5633802816956,32.2659789993918,6.348270767858945,0.0
1855.5774647887379,32.26551019085156,6.348212389728703,0.0
1865.5915492957802,32.26504502296871,6.348154464641603,0.0
1875.6056338028225,32.26458344807408,6.3480969866687795,0.0
1885.6197183098648,32.26412541937359,6.34803994999016,0.0
1895.633802816907,32.26367089092762,6.347983348891903,0.0
1905.6478873239494,32.26321981763098,6.347927177763903,0.0
1915.6619718309917,32.262772155193474,6.34787143109738,0.0
1925.676056338034,32.26232786012096,6.347816103482524,0.0
1935.6901408450763,32.26188688969704,6.34776118960622,0.0
1945.7042253521186,32.26144920196515,6.34770668424982,0.0
1955.7183098591609,32.26101475571125,6.347652582286996,0.0
1965.7323943662032,32.26058351044693,6.347598878681634,0.0
1975.7464788732455,32.26015542639301,6.347545568485803,0.0
1985.7605633802877,32.25973046446362,6.34749264683777,0.0
1995.77464788733,32.25930858625064,6.347440108960071,0.0
2005.7887323943723,32.25888975400864,6.3473879501576365,0.0
2015.8028169014146,32.2584739306402,6.3473361658159675,0.0
2025.816901408457,32.25806107968161,6.347284751399357,0.0
2035.8309859154992,32.25765116528898,6.3472337024491665,0.0
2045.8450704225415,32.25724415222472,6.347183014582144,0.0
2055.859154929584,32.256840005844346,6.347132683488783,0.0
2065.873239436626,32.25643869208368,6.347082704931732,0.0
2075.8873239436684,32.256040177446366,6.347033074744245,0.0
2085.9014084507107,32.255644428991715,6.346983788828669,0.0
2095.915492957753,32.25525141432286,6.34693484315497,0.0
2105.9295774647953,32.25486110157524,6.346886233759302,0.0
2115.9436619718376,32.254473459405325,6.346837956742614,0.0
2125.95774647888,32.25408845697975,6.346790008269282,0.0
2135.971830985922,32.25370606396458,6.346742384565792,0.0
2145.9859154929645,32.25332625051495,6.346695081919443,0.0
2156.000000000007,32.25294898726495,6.34664809667709,0.0
2166.014084507049,32.25257424531771,6.346601425243917,0.0
2176.0281690140914,32.252201996235826,6.346555064082239,0.0
2186.0422535211337,32.25183221203194,6.346509009710337,0.0
2196.056338028176,32.25146486515961,6.346463258701319,0.0
2206.0704225352183,32.25109992850438,6.346417807682017,0.0
2216.0845070422606,32.25073737537508,6.346372653331895,0.0
2226.098591549303,32.25037717949534,6.346327792382004,0.0
2236.112676056345,32.25001931499529,6.346283221613945,0.0
2246.1267605633875,32.24966375640352,6.346238937858866,0.0
2256.14084507043,32.24931047863916,6.346194937996488,0.0
2266.154929577472,32.24895945700419,6.346151218954139,0.0
2276.1690140845144,32.24861066717596,6.346107777705831,0.0
2286.1830985915567,32.24826408519983,6.346064611271339,0.0
2296.197183098599,32.247919687482025,6.346021716715316,0.0
2306.2112676056413,32.24757745078266,6.345979091146428,0.0
2316.2253521126836,32.247237352208906,6.345936731716501,0.0
2326.239436619726,32.24689936920834,6.345894635619694,0.0
2336.253521126768,32.246563479562454,6.345852800091693,0.0
2346.2676056338105,32.246229661380255,6.345811222408921,0.0
2356.281690140853,32.24589789309211,6.34576989988776,0.0
2366.295774647895,32.24556815344368,6.345728829883808,0.0
2376.3098591549374,32.24524042148995,6.345688009791136,0.0
2386.3239436619797,32.24491467658952,6.345647437041568,0.0
2396.338028169022,32.244590898398876,6.345607109103985,0.0
2406.3521126760643,32.24426906686691,6.345567023483626,0.0
2416.3661971831066,32.24394916222951,6.345527177721429,0.0
2426.380281690149,32.243631165004274,6.345487569393369,0.0
2436.394366197191,32.24331505598535,6.345448196109816,0.0
2446.4084507042335,32.24300081623839,6.345409055514907,0.0
2456.4225352112758,32.242688427095636,6.345370145285935,0.0
2466.436619718318,32.24237787015106,6.345331463132751,0.0
2476.4507042253604,32.24206912725568,6.345293006797168,0.0
2486.4647887324027,32.24176218051294,6.345254774052402,0.0
2496.478873239445,32.24145701227419,6.345216762702501,0.0
2506.4929577464873,32.24115360513426,6.345178970581797,0.0
2516.5070422535296,32.24085194192717,6.345141395554369,0.0
2526.521126760572,32.24055200572189,6.345104035513525,0.0
2536.535211267614,32.240253779818204,6.345066888381274,0.0
2546.5492957746565,32.23995724774267,6.345029952107841,0.0
2556.5633802816988,32.23966239324467,6.344993224671158,0.0
2566.577464788741,32.239369200292515,6.344956704076391,0.0
2576.5915492957834,32.23907765306967,6.34492038835547,0.0
2586.6056338028257,32.23878773597104,6.344884275566621,0.0
2596.619718309868,32.23849943359932,6.344848363793919,0.0
2606.6338028169102,32.23821273076148,6.344812651146845,0.0
2616.6478873239525,32.23792761246523,6.344777135759853,0.0
2626.661971830995,32.23764406391563,6.344741815791942,0.0
2636.676056338037,32.23736207051177,6.344706689426246,0.0
2646.6901408450794,32.23708161784348,6.344671754869625,0.0
2656.7042253521217,32.23680269168811,6.344637010352267,0.0
2666.718309859164,32.23652527800744,6.3446024541272985,0.0
2676.7323943662063,32.23624936294455,6.344568084470398,0.0
2686.7464788732486,32.235974932820845,6.344533899679429,0.0
2696.760563380291,32.23570197413311,6.344499898074067,0.0
2706.7746478873332,32.23543047355057,6.344466077995439,0.0
2716.7887323943755,32.235160417912134,6.344432437805782,0.0
2726.802816901418,32.23489179422355,6.344398975888084,0.0
2736.81690140846,32.23462458965472,6.344365690645754,0.0
2746.8309859155024,32.234358791537026,6.344332580502287,0.0
2756.8450704225447,32.23409438736071,6.344299643900942,0.0
2766.859154929587,32.23383136477234,6.344266879304422,0.0
2776.8732394366293,32.23356971157225,6.344234285194561,0.0
2786.8873239436716,32.23330941571212,6.344201860072015,0.0
2796.901408450714,32.23305046529255,6.344169602455972,0.0
2806.915492957756,32.23279284856068,6.3441375108838445,0.0
2816.9295774647985,32.232536553907885,6.3441055839109906,0.0
2826.943661971841,32.2322815698675,6.344073820110426,0.0
2836.957746478883,32.232027885112586,6.34404221807255,0.0
2846.9718309859254,32.231775488453714,6.344010776404868,0.0
2856.9859154929677,32.23152436883685,6.343979493731729,0.0
2867.00000000001,32.23127451534124,6.343948368694063,0.0
2877.0140845070523,32.23102591717735,6.343917399949123,0.0
2887.0281690140946,32.23077856368481,6.34388658617023,0.0
2897.042253521137,32.23053244433046,6.343855926046533,0.0
2907.056338028179,32.23028754870637,6.343825418282759,0.0
2917.0704225352215,32.23004386652795,6.343795061598978,0.0
2927.084507042264,32.22980138763205,6.343764854730372,0.0
2937.098591549306,32.22956010197513,6.343734796426996,0.0
2947.1126760563484,32.22931999963144,6.343704885453566,0.0
2957.1267605633907,32.229081070791246,6.3436751205892286,0.0
2967.140845070433,32.22884330575908,6.343645500627346,0.0
2977.1549295774753,32.228606694952035,6.343616024375286,0.0
2987.1690140845176,32.2283712288981,6.343586690654208,0.0
2997.18309859156,32.22813689823447,6.343557498298864,0.0
3007.197183098602,32.22790369370596,6.343528446157392,0.0
3017.2112676056445,32.227671606163405,6.343499533091119,0.0
3027.225352112687,32.22744062656209,6.34347075797437,0.0
3037.239436619729,32.22721074596023,6.343442119694274,0.0
3047.2535211267714,32.22698195551743,6.343413617150573,0.0
3057.2676056338137,32.22675424649327,6.3433852492554506,0.0
3067.281690140856,32.22652761024578,6.343357014933336,0.0
3077.2957746478983,32.22630203823007,6.343328913120737,0.0
3087.3098591549406,32.22607752199687,6.343300942766062,0.0
3097.323943661983,32.22585405319122,6.343273102829448,0.0
3107.338028169025,32.22563162355107,6.343245392282593,0.0
3117.3521126760675,32.22541022490595,6.343217810108591,0.0
3127.3661971831098,32.22518984917569,6.34319035530177,0.0
3137.380281690152,32.224970488369124,6.343163026867529,0.0
3147.3943661971944,32.224752134582815,6.3431358238221875,0.0
3157.4084507042367,32.22453477999984,6.343108745192826,0.0
3167.422535211279,32.22431841688856,6.343081790017132,0.0
3177.4366197183213,32.22410303760141,6.343054957343264,0.0
3187.4507042253636,32.223888634573754,6.343028246229688,0.0
3197.464788732406,32.2236752003227,6.343001655745047,0.0
3207.478873239448,32.223462727445984,6.342975184968013,0.0
3217.4929577464904,32.223251208620816,6.342948832987148,0.0
3227.5070422535327,32.22304063660284,6.342922598900772,0.0
3237.521126760575,32.22283100422499,6.342896481816824,0.0
3247.5352112676173,32.222622304396495,6.342870480852732,0.0
3257.5492957746596,32.222414530101766,6.342844595135282,0.0
3267.563380281702,32.22220767439942,6.34281882380049,0.0
3277.5774647887442,32.222001730421255,6.3427931659934815,0.0
3287.5915492957865,32.22179669137125,6.34276762086836,0.0
3297.605633802829,32.221592550524605,6.342742187588092,0.0
3307.619718309871,32.22138930122675,6.342716865324382,0.0
3317.6338028169134,32.221186936892444,6.342691653257562,0.0
3327.6478873239557,32.22098545100481,6.34266655057647,0.0
3337.661971830998,32.22078483711444,6.342641556478339,0.0
3347.6760563380403,32.22058508883848,6.342616670168684,0.0
3357.6901408450826,32.22038619985978,6.3425918908611925,0.0
3367.704225352125,32.22018816392598,6.342567217777618,0.0
3377.718309859167,32.2199909748487,6.342542650147672,0.0
3387.7323943662095,32.21979462650264,6.342518187208917,0.0
3397.746478873252,32.21959911282482,6.342493828206669,0.0
3407.760563380294,32.2194044278137,6.342469572393891,0.0
3417.7746478873364,32.219210565528435,6.342445419031095,0.0
3427.7887323943787,32.219017520088045,6.342421367386246,0.0
