Time,Mass,Radius,Lx
23.0,53.47334005120631,8.74,1.16e+30
33.0,53.46981037916567,8.739634862321182,2.3427030532489045e+29
43.0,53.46885079051255,8.73953559321947,7.2499999999999656e+28
53.0,53.46832609379921,8.739481313256258,6.67697068786055e+28
63.0,53.46783621684897,8.73943063522689,6.237638112995353e+28
73.0,53.46737377575525,8.739382795294983,5.886063504090086e+28
83.0,53.46693374222584,8.739337273303995,5.595893061253432e+28
93.0,53.46651249939319,8.739293695104049,5.350748619773613e+28
103.0,53.46610733702045,8.73925178033278,5.139827327431443e+28
113.0,53.465716158689816,8.739211312125015,4.955667590194822e+28
123.0,53.46533730105094,8.739172118414702,4.7929224574142715e+28
133.0,53.464969416621464,8.739134059811043,4.647643322956788e+28
143.0,53.464611394701855,8.739097021417452,4.516840233460196e+28
153.0,53.46426230621571,8.739060907125484,4.398200618641769e+28
163.0,53.463921364150444,8.739025635522596,4.289903005718226e+28
173.0,53.46358789450239,8.738991136886515,4.190489929305206e+28
183.0,53.46326131449282,8.73895735093179,4.098778976291621e+28
193.0,53.46294111593884,8.73892422508957,4.013799114370977e+28
203.0,53.46262685235621,8.738891713173446,3.9347442109454176e+28
213.0,53.46231812881471,8.738859774330042,3.860938502447825e+28
223.0,53.462014593857354,8.738828372203072,3.7918105373096156e+28
233.0,53.46171593299021,8.738797474259908,3.726873234709668e+28
243.0,53.461421863383464,8.738767051243421,3.665708428371716e+28
253.0,53.461132129518006,8.738737076721637,3.607954747417378e+28
263.0,53.460846499578246,8.738707526714599,3.5532980130242813e+28
273.0,53.46056476243982,8.73867837938275,3.50146355471207e+28
283.0,53.460286725136015,8.738649614764848,3.452210007624337e+28
293.0,53.46001221071255,8.738621214556058,3.405324264084414e+28
303.0,53.45974105640014,8.73859316191891,3.360617333278653e+28
313.0,53.459473112048805,8.73856544132133,3.3179209216645105e+28
323.0,53.459208238779276,8.73853803839714,3.2770845900258236e+28
333.0,53.45894630781567,8.738510939825309,3.237973375396131e+28
343.0,53.45868719947038,8.738484133224933,3.2004657903911368e+28
353.0,53.458430802257446,8.738457607063522,3.1644521309760387e+28
363.0,53.45817701211499,8.73843135057657,3.129833037865973e+28
373.0,53.45792573172073,8.738405353696747,3.096518267713702e+28
383.0,53.45767686988715,8.738379606991321,3.0644256387733673e+28
393.0,53.45743034102531,8.738354101606708,3.0334801224262046e+28
403.0,53.45718606466787,8.738328829219123,3.003613057245211e+28
413.0,53.45694396504363,8.738303781990567,2.9747614664832494e+28
423.0,53.45670397069672,8.738278952529438,2.9468674632353572e+28
433.0,53.456466014145,8.738254333855194,2.919877730234935e+28
443.0,53.456230031572694,8.738229919366553,2.8937430634355156e+28
453.0,53.455995962553196,8.738205702812827,2.868417970312747e+28
463.0,53.45576374979847,8.73818167826799,2.8438603152787913e+28
473.0,53.45553333893197,8.738157840107194,2.820031005798464e+28
483.0,53.45530467828244,8.738134182985435,2.7968937137841904e+28
493.0,53.45507771869625,8.738110701818144,2.774414627665359e+28
503.0,53.454852413366325,8.738087391763488,2.752562231208676e+28
513.0,53.45462871767581,8.738064248206195,2.7313071057350897e+28
523.0,53.45440658905501,8.738041266742762,2.7106217528558943e+28
533.0,53.45418598685024,8.738018443167887,2.6904804352521417e+28
543.0,53.45396687220333,8.737995773461996,2.67085903336056e+28
553.0,53.45374920794083,8.737973253779796,2.651734916116484e+28
563.0,53.45353295847188,8.737950880439694,2.633086824148555e+28
573.0,53.45331808969402,8.73792864991407,2.6148947640282056e+28
583.0,53.4531045689061,8.737906558820256,2.5971399123550667e+28
593.0,53.452892364727724,8.737884603912208,2.579804528612211e+28
603.0,53.45268144702459,8.737862782072783,2.562871875856538e+28
613.0,53.4524717868392,8.73784109030657,2.546326148422924e+28
623.0,53.45226335632652,8.737819525733233,2.5301524059187298e+28
633.0,53.4520561286941,8.737798085581323,2.514336512870162e+28
643.0,53.451850078146336,8.7377767671825,2.4988650834557914e+28
653.0,53.451645179832475,8.737755567966172,2.483725430826725e+28
663.0,53.45144140979811,8.737734485454459,2.468905520569065e+28
673.0,53.45123874493984,8.737713517257516,2.4543939279132843e+28
683.0,53.4510371629629,8.737692661069149,2.4401797983381747e+28
693.0,53.4508366423414,8.737671914662691,2.426252811254773e+28
703.0,53.45063716228118,8.73765127588717,2.4126031464889013e+28
713.0,53.45043870268487,8.737630742663699,2.3992214533102723e+28
723.0,53.45024124411912,8.737610312982065,2.3860988217819878e+28
733.0,53.45004476778381,8.737589984897573,2.373226756227171e+28
743.0,53.44984925548305,8.73756975652802,2.3605971506297924e+28
753.0,53.449654689597956,8.737549626050894,2.3482022658047735e+28
763.0,53.449461053060894,8.737529591700708,2.3360347081885083e+28
773.0,53.449268329331275,8.73750965176649,2.3240874101152354e+28
783.0,53.449076502372684,8.737489804589424,2.3123536114574493e+28
793.0,53.44888555663128,8.737470048560612,2.3008268425199442e+28
803.0,53.448695477015384,8.737450382118961,2.2895009080872805e+28
813.0,53.448506248876164,8.73743080374919,2.278369872533633e+28
823.0,53.44831785798938,8.737411311979935,2.2674280459121607e+28
833.0,53.44813029053806,8.737391905381966,2.2566699709484417e+28
843.0,53.4479435330961,8.737372582566481,2.2460904108691563e+28
853.0,53.44775757261273,8.737353342183505,2.235684338003178e+28
863.0,53.447572396397725,8.73733418292036,2.2254469230976435e+28
873.0,53.4473879921074,8.737315103500213,2.215373525296453e+28
883.0,53.447204347731315,8.7372961026807,2.2054596827330717e+28
893.0,53.44702145157956,8.737277179252619,2.1957011036934802e+28
903.0,53.44683929227077,8.73725833203868,2.186093658308793e+28
913.0,53.44665785872061,8.737239559892323,2.176633370740296e+28
923.0,53.446477140130916,8.737220861696583,2.1673164118227085e+28
933.0,53.44629712597923,8.73720223636302,2.1581390921341367e+28
943.0,53.44611780600893,8.737183682830693,2.1490978554637155e+28
953.0,53.44593917021976,8.737165200065178,2.1401892726501584e+28
963.0,53.445761208858784,8.73714678705763,2.1314100357665105e+28
973.0,53.4455839124118,8.737128442823911,2.1227569526282925e+28
983.0,53.44540727159508,8.73711016640371,2.1142269416039238e+28
993.0,53.445231277347524,8.737091956859752,2.1058170267079075e+28
1003.0,53.44505601553349,8.7370738230764,2.090081135351165e+28
1013.0,53.44488279073774,8.737055900035411,2.057564507998924e+28
1023.0,53.44471202102101,8.737038230993083,2.0258657787155107e+28
1033.0,53.44454364800141,8.737020809909694,1.9949566780668547e+28
1043.0,53.44437761523471,8.73700363094597,1.9648101746444167e+28
1053.0,53.44421386813215,8.736986688454579,1.9354004096365916e+28
1063.0,53.44405235388251,8.736969976972066,1.90670263543932e+28
1073.0,53.4438930213781,8.736953491211205,1.8786931580213176e+28
1083.0,53.44373582114452,8.73693722605373,1.851349282781836e+28
1093.0,53.443580705273945,8.736921176543428,1.824649263659377e+28
1103.0,53.44342762736171,8.736905337879591,1.7985722552685233e+28
1113.0,53.443276542445986,8.73688970541077,1.7730982678592005e+28
1123.0,53.44312740695043,8.736874274628832,1.748208124908331e+28
1133.0,53.44298017862959,8.736859041163333,1.723883423168225e+28
1143.0,53.44283481651691,8.736844000776124,1.700106495009184e+28
1153.0,53.44269128087521,8.736829149356236,1.6768603729058693e+28
1163.0,53.44254953314951,8.736814482914992,1.6541287559280541e+28
1173.0,53.442409535922025,8.736799997581363,1.6318959781065499e+28
1183.0,53.44227125286925,8.736785689597518,1.6101469785544454e+28
1193.0,53.44213464872102,8.736771555314597,1.588867273232399e+28
1203.0,53.441999689221454,8.736757591188663,1.5680429282546348e+28
1213.0,53.44186634109157,8.736743793776844,1.5476605346395964e+28
1223.0,53.44173457199369,8.73673015973364,1.5277071844159233e+28
1233.0,53.44160435049735,8.736716685807403,1.5081704480006252e+28
1243.0,53.4414756460467,8.736703368836974,1.4890383527720523e+28
1253.0,53.44134842892938,8.736690205748438,1.4702993627655415e+28
1263.0,53.441222670246724,8.736677193552069,1.4519423594245204e+28
1273.0,53.44109834188519,8.736664329339355,1.433956623344352e+28
1283.0,53.44097541648909,8.736651610280193,1.41633181695041e+28
1293.0,53.44085386743443,8.736639033620165,1.3990579680557288e+28
1303.0,53.44073366880382,8.736626596677958,1.3821254542471741e+28
1313.0,53.44061479536253,8.736614296842877,1.3655249880524102e+28
1323.0,53.44049722253537,8.736602131572464,1.3492476028430196e+28
1333.0,53.4403809263847,8.73659009839021,1.333284639432007e+28
1343.0,53.440265883589184,8.736578194883366,1.3176277333265775e+28
1353.0,53.440152071423526,8.736566418700846,1.3022688025995552e+28
1363.0,53.440039467738906,8.736554767551198,1.2872000363451093e+28
1373.0,53.43992805094427,8.736543239200676,1.272413883686598e+28
1383.0,53.43981779998835,8.736531831471375,1.257903043306326e+28
1393.0,53.43970869434235,8.73652054223944,1.2436604534688825e+28
1403.0,53.43960071398335,8.736509369433348,1.2296792825114366e+28
1413.0,53.43949383937834,8.736498311032266,1.2159529197759997e+28
1423.0,53.439388051468846,8.736487365064441,1.2024749669601522e+28
1433.0,53.43928333165616,8.7364765296057,1.1892392298641452e+28
1443.0,53.43917966178714,8.73646580277795,1.1762397105136008e+28
1453.0,53.43907702414053,8.736455182747788,1.1634705996382474e+28
1463.0,53.438975401413764,8.73644466772512,1.1509262694882854e+28
1473.0,53.43887477671033,8.736434255961864,1.1386012669710393e+28
1483.0,53.43877513352752,8.736423945750678,1.1264903070915544e+28
1493.0,53.438676455744705,8.736413735423742,1.114588266681745e+28
1503.0,53.43857872761196,8.736403623351595,1.102890178403556e+28
1513.0,53.43848193373915,8.736393607941991,1.0913912250124469e+28
1523.0,53.438386059085396,8.736383687638819,1.0800867338682597e+28
1533.0,53.438291088948915,8.73637386092105,1.0689721716812628e+28
1543.0,53.438197008957225,8.73636412630172,1.058043139481841e+28
1553.0,53.43810380505767,8.736354482326954,1.0472953678029298e+28
1563.0,53.43801146350831,8.73634492757502,1.036724712064904e+28
1573.0,53.43791997086911,8.736335460655424,1.0263271481531739e+28
1583.0,53.437829313993426,8.736326080208018,1.0160987681792809e+28
1593.0,53.437739480019815,8.736316784902165,1.0060357764167797e+28
1603.0,53.43765045636407,8.73630757343591,9.961344854036515e+27
1613.0,53.437562230711585,8.736298444535183,9.863913122034388e+27
1623.0,53.437474791009926,8.736289396953046,9.768027748177005e+27
1633.0,53.43738812546169,8.736280429468936,9.67365488742779e+27
1643.0,53.43730222251756,8.736271540887964,9.580761636642259e+27
1653.0,53.43721707086965,8.736262730040213,9.489316002825918e+27
1663.0,53.437132659445,8.736253995780073,9.399286872645987e+27
1673.0,53.43704897739932,8.736245336985592,9.310643983140233e+27
1683.0,53.43696601411096,8.736236752557847,9.223357893569133e+27
1693.0,53.436883759175,8.736228241420342,9.137399958360179e+27
1703.0,53.43680220239761,8.736219802518416,9.05274230109589e+27
1713.0,53.43672133379055,8.736211434818683,8.96935778949935e+27
1723.0,53.43664114356586,8.736203137308468,8.887220011373481e+27
1733.0,53.436561622130675,8.73619490899529,8.806303251452434e+27
1743.0,53.43648276008227,8.736186748906333,8.726582469125438e+27
1753.0,53.43640454820321,8.736178656087949,8.648033276995488e+27
1763.0,53.43632697745665,8.73617062960518,8.570631920237025e+27
1773.0,53.43625003898184,8.73616266854128,8.49435525671848e+27
1783.0,53.43617372408967,8.736154771997263,8.419180737857249e+27
1793.0,53.436098024258435,8.736146939091464,8.345086390176169e+27
1803.0,53.43602293112968,8.736139168959102,8.272050797532034e+27
1813.0,53.4359484365042,8.736131460751878,8.200053083988135e+27
1823.0,53.43587453233814,8.73612381363756,8.129072897304038e+27
1833.0,53.43580121073922,8.736116226799599,8.059090393017164e+27
1843.0,53.43572846396306,8.73610869943675,7.990086219091827e+27
1853.0,53.435656284409625,8.7361012307627,7.922041501112572e+27
1863.0,53.43558466461978,8.736093820005708,7.854937827999701e+27
1873.0,53.435513597271935,8.736086466408272,7.788757238225886e+27
1883.0,53.43544307517879,8.736079169226777,7.723482206513706e+27
1893.0,53.43537309128416,8.736071927731176,7.659095630994922e+27
1903.0,53.435303638659924,8.73606474120467,7.595580820813075e+27
1913.0,53.435234710503025,8.736057608943398,7.532921484151906e+27
1923.0,53.435166300132586,8.736050530256142,7.471101716672822e+27
1933.0,53.43509840098708,8.73604350446403,7.410105990345382e+27
1943.0,53.43503100662159,8.736036530900254,7.349919142655515e+27
1953.0,53.43496411070518,8.7360296089098,7.290526366176811e+27
1963.0,53.434897707018266,8.736022737849172,7.231913198490886e+27
1973.0,53.43483178945012,8.736015917086139,7.174065512443448e+27
1983.0,53.43476635199643,8.736009145999475,7.116969506723222e+27
1993.0,53.4347013887569,8.73600242397872,7.060611696751503e+27
2003.0,53.43463689393296,8.735995750423937,7.004978905870561e+27
2013.0,53.43457286182551,8.73598912474548,6.9500582568197e+27
2023.0,53.4345092868327,8.735982546363763,6.895837163488174e+27
2033.0,53.434446163447845,8.735976014709049,6.842303322934677e+27
2043.0,53.4343834862573,8.735969529221222,6.78944470766351e+27
2053.0,53.43432124993849,8.735963089349593,6.737249558147974e+27
2063.0,53.43425944925791,8.735956694552684,6.685706375591914e+27
2073.0,53.434198079069205,8.735950344298038,6.634803914920715e+27
2083.0,53.43413713431134,8.735944038062021,6.584531177993409e+27
2093.0,53.434076610006755,8.735937775329637,6.534877407027916e+27
2103.0,53.434016501259606,8.735931555594341,6.485832078231711e+27
2113.0,53.43395680325404,8.735925378357873,6.437384895630586e+27
2123.0,53.433897511252525,8.735919243130066,6.389525785088442e+27
2133.0,53.43383862059419,8.735913149428688,6.342244888511314e+27
2143.0,53.433780126693264,8.735907096779279,6.295532558229129e+27
2153.0,53.4337220250375,8.735901084714984,6.24937935154897e+27
2163.0,53.43366431118666,8.735895112776397,6.203776025473794e+27
2173.0,53.43360698077106,8.735889180511414,6.158713531580889e+27
2183.0,53.4335500294901,8.735883287475074,6.114183011054509e+27
2193.0,53.433493453110884,8.735877433229428,6.070175789867359e+27
2203.0,53.433437247466834,8.735871617343381,6.026683374105825e+27
2213.0,53.43338140845638,8.735865839392567,5.983697445434027e+27
2223.0,53.43332593204162,8.735860098959208,5.941209856691981e+27
2233.0,53.43327081424708,8.73585439563198,5.899212627623287e+27
2243.0,53.433216051158475,8.7358487290059,5.857697940728021e+27
2253.0,53.433161638921476,8.735843098682176,5.816658137236578e+27
2263.0,53.43310757374054,8.735837504268105,5.776085713200457e+27
2273.0,53.43305385187777,8.735831945376948,5.735973315696062e+27
2283.0,53.43300046965178,8.735826421627808,5.696313739137784e+27
2293.0,53.432947423436595,8.735820932645527,5.65709992169678e+27
2303.0,53.43289470966057,8.735815478060564,5.618324941821917e+27
2313.0,53.432842324805385,8.735810057508898,5.579982014859597e+27
2323.0,53.43279026540497,8.735804670631909,5.5420644897692e+27
2333.0,53.43273852804453,8.735799317076285,5.504565845931068e+27
2343.0,53.43268710935959,8.735793996493925,5.467479690044014e+27
2353.0,53.43263600603501,8.735788708541822,5.430799753109507e+27
2363.0,53.43258521480407,8.735783452881986,5.394519887499714e+27
2373.0,53.43253473244756,8.73577822918134,5.358634064106775e+27
2383.0,53.43248455579288,8.735773037111633,5.323136369570685e+27
2393.0,53.43243468171321,8.735767876349344,5.288021003583316e+27
2403.0,53.43238510712662,8.7357627465756,5.253282276266181e+27
2413.0,53.43233582899526,8.73575764747609,5.218914605619628e+27
2423.0,53.43228684432454,8.735752578740975,5.184912515041214e+27
2433.0,53.43223815016235,8.735747540064816,5.151270630911126e+27
2443.0,53.432189743598286,8.735742531146482,5.117983680242569e+27
2453.0,53.43214162176288,8.735737551689084,5.085046488395105e+27
2463.0,53.43209378182687,8.73573260139989,5.052453976849009e+27
2473.0,53.43204622100047,8.735727679990253,5.020201161038791e+27
2483.0,53.431998936532665,8.735722787175536,4.98828314824405e+27
2493.0,53.43195192571053,8.735717922675045,4.956695135535962e+27
2503.0,53.43190518585852,8.73571308621195,4.925432407777659e+27
2513.0,53.43185871433784,8.735708277513226,4.8944903356769395e+27
2523.0,53.4318125085458,8.735703496309583,4.863864373889693e+27
2533.0,53.431766565915126,8.735698742335396,4.833550059172542e+27
2543.0,53.431720883913414,8.735694015328646,4.803543008583241e+27
2553.0,53.43167546004247,8.735689315030855,4.773838917727393e+27
2563.0,53.431630291837735,8.735684641187023,4.7444335590501514e+27
2573.0,53.431585376867694,8.73567999354557,4.7153227801715404e+27
2583.0,53.43154071273332,8.73567537185828,4.686502502264155e+27
2593.0,53.43149629706751,8.735670775880234,4.657968718471975e+27
2603.0,53.431452127534534,8.735666205369764,4.629717492369114e+27
2613.0,53.43140820182949,8.73566166008839,4.601744956457332e+27
2623.0,53.43136451767782,8.73565713980077,4.574047310701211e+27
2633.0,53.43132107283475,8.735652644274644,4.546620821099889e+27
2643.0,53.43127786508481,8.735648173280788,4.51946181829432e+27
2653.0,53.43123489224135,8.735643726592954,4.4925666962090457e+27
2663.0,53.431192152146046,8.73563930398783,4.4659319107274855e+27
2673.0,53.43114964266843,8.735634905244979,4.439553978399809e+27
2683.0,53.431107361705436,8.735630530146805,4.4134294751824675e+27
2693.0,53.43106530718093,8.7356261784785,4.3875550352084826e+27
2703.0,53.43102347704528,8.73562185002799,4.361927349587651e+27
2713.0,53.430981869274916,8.735617544585903,4.3365431652358174e+27
2723.0,53.43094048187191,8.735613261945522,4.3113992837324027e+27
2733.0,53.430899312863545,8.735609001902736,4.28649256020542e+27
2743.0,53.430858360301926,8.735604764256,4.2618199022432046e+27
2753.0,53.430817622263554,8.735600548806294,4.2373782688321333e+27
2763.0,53.430777096848956,8.735596355357087,4.213164669319616e+27
2773.0,53.43073678218229,8.735592183714289,4.1891761624016685e+27
2783.0,53.430696676410946,8.735588033686218,4.165409855134403e+27
2793.0,53.430656777705224,8.735583905083557,4.1418629019687787e+27
2803.0,53.430617084257925,8.73557979771932,4.118532503807997e+27
2813.0,53.43057759428401,8.735575711408815,4.095415907086919e+27
2823.0,53.43053830602026,8.735571645969607,4.072510402872924e+27
2833.0,53.43049921772492,8.735567601221478,4.0498133259876243e+27
2843.0,53.43046032767737,8.735563576986403,4.0273220541488994e+27
2853.0,53.43042163417779,8.735559573088501,4.0050340071326904e+27
2863.0,53.43038313554684,8.73555558935402,3.982946645954044e+27
2873.0,53.43034483012535,8.735551625611285,3.961057472066896e+27
2883.0,53.430306716273996,8.735547681690681,3.939364026582101e+27
2893.0,53.43026879237299,8.735543757424614,3.917863889503228e+27
2903.0,53.43023105682181,8.735539852647477,3.896554678979668e+27
2913.0,53.43019350803887,8.73553596719563,3.8754340505765916e+27
2923.0,53.43015614446124,8.73553210090736,3.8544996965613276e+27
2933.0,53.4301189645444,8.735528253622856,3.8337493452057357e+27
2943.0,53.4300819667619,8.735524425184183,3.8131807601041674e+27
2953.0,53.43004514960513,8.735520615435243,3.792791739506602e+27
2963.0,53.43000851158305,8.735516824221767,3.7725801156665846e+27
2973.0,53.4299720512219,8.735513051391264,3.7525437542035844e+27
2983.0,53.42993576706498,8.735509296793012,3.732680553479397e+27
2993.0,53.429899657672365,8.735505560278026,3.7129884439882546e+27
3003.0,53.42986372162066,8.73550184169903,3.6934653877602815e+27
3013.0,53.42982795750279,8.735498140910433,3.674109377777966e+27
3023.0,53.429792363927696,8.735494457768308,3.654918437405324e+27
3033.0,53.42975693952016,8.735490792130364,3.635890619829437e+27
3043.0,53.42972168292055,8.73548714385592,3.617024007514053e+27
3053.0,53.42968659278459,8.735483512805887,3.5983167116649533e+27
3063.0,53.42965166778314,8.735479898842739,3.5797668717067947e+27
3073.0,53.42961690660197,8.735476301830497,3.5613726547711475e+27
3083.0,53.429582307941565,8.735472721634698,3.5431322551954445e+27
3093.0,53.42954787051689,8.735469158122388,3.5250438940325866e+27
