Time,Mass,Radius,Lx
23.0,6.728688454232868,8.74,1.4400000000000044e+30
23.1,6.727144636527341,8.734056089459433,1.4330151463418038e+30
23.200000000000003,6.725610875531714,8.728145078574611,1.4260941266342146e+30
23.300000000000004,6.724087061644261,8.722266644165197,1.4192360861134417e+30
23.400000000000006,6.722573086926986,8.7164204675827,1.41244018506433e+30
23.500000000000007,6.7210688450733596,8.710606234628152,1.4057055984925302e+30
23.60000000000001,6.719574231376808,8.704823635471593,1.399031515805166e+30
23.70000000000001,6.718089142699943,8.699072364573372,1.3924171404997456e+30
23.80000000000001,6.716613477444515,8.693352120607168,1.385861689861072e+30
23.900000000000013,6.715147135522056,8.687662606384713,1.3793643946659136e+30
24.000000000000014,6.713690018325212,8.682003528782147,1.3729244988952041e+30
24.100000000000016,6.712242028699733,8.676374598668005,1.3665412594535502e+30
24.200000000000017,6.7108030709171045,8.670775530832751,1.360213945895832e+30
24.30000000000002,6.709373050647807,8.66520604391982,1.3539418401606892e+30
24.40000000000002,6.707951874935186,8.659665860358206,1.3477242363106877e+30
24.50000000000002,6.706539452169915,8.654154706296424,1.3415604402789818e+30
24.600000000000023,6.705135692065032,8.648672311537931,1.3354497696222713e+30
24.700000000000024,6.703740505631543,8.643218409477907,1.3293915532798852e+30
24.800000000000026,6.702353805154567,8.63779273704137,1.323385131338805e+30
24.900000000000027,6.700975504170018,8.632395034622617,1.3174298548044668e+30
25.00000000000003,6.699605517441808,8.627025046025919,1.3115250853771698e+30
25.10000000000003,6.698243760939543,8.621682518407471,1.3056701952339382e+30
25.20000000000003,6.696890151816728,8.616367202218559,1.2998645668156794e+30
25.300000000000033,6.695544608389435,8.611078851149871,1.2941075926194913e+30
25.400000000000034,6.69420705011545,8.605817222077029,1.288398674995971e+30
25.500000000000036,6.692877397573867,8.600582075007184,1.282737225951389e+30
25.600000000000037,6.6915555724451306,8.595373173026728,1.2771226669545936e+30
25.70000000000004,6.690241497491504,8.590190282250093,1.271554428748509e+30
25.80000000000004,6.688935096537967,8.585033171769576,1.2660319511661094e+30
25.90000000000004,6.687636294453513,8.57990161360618,1.2605546829507359e+30
26.000000000000043,6.686345017132855,8.574795382661474,1.2551220815806473e+30
26.100000000000044,6.68506119147852,8.569714256670395,1.2497336130976808e+30
26.200000000000045,6.683784745383315,8.56465801615501,1.2443887519399163e+30
26.300000000000047,6.682515607713176,8.559626444379216,1.2390869807782338e+30
26.40000000000005,6.681253708290369,8.55461932730433,1.233827790356659e+30
26.50000000000005,6.679998977877049,8.54963645354555,1.2286106793363963e+30
26.60000000000005,6.678751348159157,8.544677614329308,1.2234351541434497e+30
26.700000000000053,6.677510751730659,8.53974260345143,1.2183007288197351e+30
26.800000000000054,6.6762771220781065,8.53483121723615,1.2132069248775936e+30
26.900000000000055,6.67505039356552,8.5299432544959,1.2081532711576139e+30
27.000000000000057,6.67383050141958,8.525078516491895,1.2031393036896767e+30
27.10000000000006,6.672617381715125,8.520236806895495,1.1981645655571374e+30
27.20000000000006,6.6714109713609435,8.515417931750289,1.1932286067640643e+30
27.30000000000006,6.670211208085858,8.510621699434934,1.1883309841054516e+30
27.400000000000063,6.669018030425089,8.505847920626696,1.1834712610403339e+30
27.500000000000064,6.667831377706896,8.501096408265695,1.1786490075677203e+30
27.600000000000065,6.666651190039487,8.496366977519829,1.1738638001052825e+30
27.700000000000067,6.665477408298192,8.491659445750365,1.1691152213707214e+30
27.800000000000068,6.664309974112889,8.48697363247818,1.1644028602657453e+30
27.90000000000007,6.663148829855687,8.482309359350648,1.1597263117625932e+30
28.00000000000007,6.661993918628847,8.47766645010914,1.1550851767930374e+30
28.100000000000072,6.660845184252946,8.473044730557145,1.1504790621398048e+30
28.200000000000074,6.659702571255276,8.46844402852896,1.145907580330352e+30
28.300000000000075,6.658566024858464,8.463864173859008,1.1413703495329406e+30
28.400000000000077,6.657435490969322,8.459304998351673,1.1368669934549483e+30
28.500000000000078,6.656310916167909,8.454766335751748,1.1323971412433665e+30
28.60000000000008,6.655192247696811,8.450248021715362,1.1279604273874247e+30
28.70000000000008,6.654079433450624,8.445749893781509,1.1235564916232924e+30
28.800000000000082,6.652972421965642,8.44127179134405,1.1191849788408057e+30
28.900000000000084,6.651871162409743,8.436813555624244,1.1148455389921687e+30
29.000000000000085,6.65077560457247,8.43237502964378,1.1105378270025812e+30
29.100000000000087,6.649685698855298,8.427956058198282,1.1062615026827472e+30
29.200000000000088,6.648601396262093,8.423556487831318,1.1020162306432147e+30
29.30000000000009,6.647522648389743,8.419176166808848,1.0978016802105069e+30
29.40000000000009,6.6464494074189755,8.414814945094152,1.0936175253449977e+30
29.500000000000092,6.64538162610534,8.4104726743232,1.0894634445604911e+30
29.600000000000094,6.6443192577703645,8.40614920778045,1.0853391208454629e+30
29.700000000000095,6.643262256292878,8.401844400375087,1.0812442415859265e+30
29.800000000000097,6.6422105761004895,8.397558108617686,1.0771784984898812e+30
29.900000000000098,6.6411641721612344,8.393290190597266,1.0731415875133072e+30
30.0000000000001,6.6401229999753655,8.38904050595878,1.0691332087876701e+30
30.1000000000001,6.639087015567304,8.384808915880967,1.0651530665489008e+30
30.200000000000102,6.6380561754777325,8.380595283054598,1.0612008690678114e+30
30.300000000000104,6.637030436755838,8.376399471661125,1.0572763285819197e+30
30.400000000000105,6.636009756951693,8.372221347351667,1.0533791612286438e+30
30.500000000000107,6.6349940941087775,8.368060777226383,1.0495090869798385e+30
30.600000000000108,6.633983406756637,8.363917629814182,1.0456658295776401e+30
30.70000000000011,6.632977653903672,8.359791775052809,1.0418491164715904e+30
30.80000000000011,6.6319767950300585,8.355683084269229,1.0380586787570092e+30
30.900000000000112,6.630980790080796,8.351591430160392,1.0342942511145887e+30
31.000000000000114,6.629989599458879,8.347516686774295,1.0305555717511799e+30
31.100000000000115,6.6290031840185915,8.343458729491374,1.0268423823417424e+30
31.200000000000117,6.628021505058922,8.339417435006212,1.0231544279724354e+30
31.300000000000118,6.627044524317094,8.33539268130956,1.0194914570848199e+30
31.40000000000012,6.626072203962211,8.331384347670642,1.0158532214211484e+30
31.50000000000012,6.625104506589013,8.327392314619779,1.0122394759707183e+30
31.600000000000122,6.624141395211744,8.323416463931284,1.0086499789172628e+30
31.700000000000124,6.62318283325813,8.319456678606668,1.0050844915873589e+30
31.800000000000125,6.622228784563455,8.315512842858077,1.001542778399827e+30
31.900000000000126,6.621279213364746,8.311584842092056,9.980246068161025e+29
32.00000000000013,6.620334084295057,8.307672562893558,9.94529747291555e+29
32.10000000000013,6.619393362377852,8.303775893010192,9.910579732277365e+29
32.20000000000013,6.618457013021486,8.299894721336786,9.87609060925538e+29
32.30000000000013,6.617525002013781,8.296028937900136,9.841827895392303e+29
32.400000000000134,6.61659729551669,8.292178433844057,9.807789410313774e+29
32.500000000000135,6.615673860061062,8.28834310141465,9.773973001285957e+29
32.600000000000136,6.614754662541486,8.284522833945804,9.74037654278144e+29
32.70000000000014,6.613839670211231,8.28071752584496,9.70699793605327e+29
32.80000000000014,6.612928850677265,8.276927072579065,9.673835108716933e+29
32.90000000000014,6.6120221718953625,8.273151370660777,9.640886014340103e+29
33.00000000000014,6.611119602165294,8.269390317634896,9.608148632040002e+29
33.10000000000014,6.610221110126095,8.265643812064988,9.575620966088203e+29
33.200000000000145,6.609326664751413,8.261911753520241,9.543301045522726e+29
33.300000000000146,6.608436235344937,8.258194042562515,9.511186923767247e+29
33.40000000000015,6.6075497915358925,8.254490580733604,9.4792766782573e+29
33.50000000000015,6.606667303274629,8.250801270542707,9.447568410073296e+29
33.60000000000015,6.605788740828262,8.247126015454084,9.416060243580233e+29
33.70000000000015,6.604914074776398,8.243464719874904,9.384750326073939e+29
33.80000000000015,6.604043276006926,8.239817289143291,9.353636827433743e+29
33.900000000000155,6.603176315711876,8.236183629516548,9.322717939781376e+29
34.000000000000156,6.602313165383354,8.23256364815958,9.291991877146055e+29
34.10000000000016,6.6014537968095315,8.228957253133467,9.261456875135551e+29
34.20000000000016,6.6005981820707085,8.22536435338425,9.231111190613147e+29
34.30000000000016,6.599746293535436,8.221784858731858,9.200953101380365e+29
34.40000000000016,6.598898103856702,8.218218679859222,9.170980905865336e+29
34.50000000000016,6.5980535859681835,8.214665728301544,9.141192922816692e+29
34.600000000000165,6.597212713080549,8.211125916435751,9.11158749100288e+29
34.700000000000166,6.596375458677831,8.207599157470083,9.082162968916774e+29
34.80000000000017,6.595541796513848,8.204085365433855,9.052917734485481e+29
34.90000000000017,6.594711700608688,8.200584455167373,9.023850184785246e+29
35.00000000000017,6.593885145245247,8.197096342311992,8.994958735761314e+29
35.10000000000017,6.593062104965823,8.193620943300344,8.966241821952719e+29
35.20000000000017,6.59224255456876,8.190158175346683,8.937697896221819e+29
35.300000000000175,6.59142646910515,8.186707956437404,8.909325429488539e+29
35.400000000000176,6.590613823875581,8.183270205321689,8.881122910469205e+29
35.50000000000018,6.589804594426944,8.179844841502279,8.853088845419878e+29
35.60000000000018,6.588998756549281,8.176431785226415,8.825221757884106e+29
35.70000000000018,6.588196286272689,8.173030957476891,8.797520188444983e+29
35.80000000000018,6.587397159864266,8.169642279963238,8.769982694481482e+29
35.90000000000018,6.5866013538251105,8.166265675113042,8.742607849928892e+29
36.000000000000185,6.585808844887362,8.162901066063407,8.715394245043373e+29
36.100000000000186,6.58501961001129,8.159548376652497,8.68834048617048e+29
36.20000000000019,6.584233626382429,8.156207531411264,8.661445195517595e+29
36.30000000000019,6.58345087140875,8.152878455555232,8.634707010930217e+29
36.40000000000019,6.582671322717886,8.149561074976456,8.608124585671988e+29
36.50000000000019,6.581894958154392,8.146255316235559,8.581696588208429e+29
36.60000000000019,6.5811217557770485,8.1429611065539,8.555421701994277e+29
36.700000000000195,6.580351693856206,8.13967837380586,8.529298625264374e+29
36.800000000000196,6.579584750871169,8.136407046511215,8.503326070828041e+29
36.9000000000002,6.578820905507625,8.133147053827647,8.477502765866843e+29
37.0000000000002,6.578060136655098,8.129898325543355,8.451827451735719e+29
37.1000000000002,6.577302423404458,8.12666079206974,8.426298883767379e+29
37.2000000000002,6.576547745045454,8.123434384434255,8.400915831079926e+29
37.3000000000002,6.575796081064292,8.12021903427328,8.375677076387628e+29
37.400000000000205,6.575047411141242,8.117014673825174,8.350581415814805e+29
37.500000000000206,6.5743017151482865,8.113821235923373,8.325627658712715e+29
37.60000000000021,6.5735589731468025,8.110638653989595,8.300814627479466e+29
37.70000000000021,6.572819165385274,8.107466862027165,8.276141157382817e+29
37.80000000000021,6.572082272297043,8.104305794614392,8.251606096385863e+29
37.90000000000021,6.571348274498087,8.101155386898078,8.227208304975535e+29
38.00000000000021,6.5706171527848385,8.098015574587095,8.202946655993855e+29
38.100000000000215,6.569888888132027,8.094886293946054,8.178820034471906e+29
38.200000000000216,6.569163461690559,8.091767481789061,8.154827337466464e+29
38.30000000000022,6.5684408547854245,8.088659075473577,8.130967473899239e+29
38.40000000000022,6.567721048913635,8.08556101289433,8.107239364398669e+29
38.50000000000022,6.567004025742191,8.082473232477335,8.083641941144241e+29
38.60000000000022,6.566289767106083,8.079395673173986,8.06017414771328e+29
38.70000000000022,6.565578255006312,8.076328274455243,8.036834938930152e+29
38.800000000000225,6.56486947160795,8.073270976305867,8.013623280717845e+29
38.900000000000226,6.564163399238216,8.070223719218774,7.990538149951903e+29
39.00000000000023,6.563460020384589,8.06718644418943,7.967578534316625e+29
39.10000000000023,6.562759317692945,8.06415909271034,7.944743432163539e+29
39.20000000000023,6.562061273965715,8.061141606765615,7.922031852372069e+29
39.30000000000023,6.561365872160079,8.058133928825585,7.899442814212384e+29
39.40000000000023,6.560673095386177,8.05513600184153,7.876975347210361e+29
39.500000000000234,6.559982926905349,8.052147769240436,7.854628491014661e+29
39.600000000000236,6.5592953501284,8.049169174919848,7.832401295265848e+29
39.70000000000024,6.558610348613886,8.046200163242792,7.810292819467514e+29
39.80000000000024,6.557927906066428,8.04324067903273,7.788302132859414e+29
39.90000000000024,6.557248006335048,8.040290667568636,7.766428314292518e+29
40.00000000000024,6.556570633411523,8.0373500745801,7.744670452105995e+29
40.10000000000024,6.5558957714287756,8.034418846242502,7.723027644006063e+29
40.200000000000244,6.555223404659269,8.03149692917226,7.701498996946692e+29
40.300000000000246,6.554553517513436,8.028584270422115,7.680083627012102e+29
40.40000000000025,6.553886094538129,8.025680817476534,7.658780659301071e+29
40.50000000000025,6.553221120415084,8.022786518247097,7.637589227812953e+29
40.60000000000025,6.552558579959413,8.019901321068,7.616508475335447e+29
40.70000000000025,6.551898458118116,8.017025174691593,7.595537553334038e+29
40.80000000000025,6.551240739968608,8.014158028283994,7.574675621843098e+29
40.900000000000254,6.550585410717271,8.011299831420734,7.553921849358614e+29
41.000000000000256,6.549932455698023,8.008450534082474,7.533275412732525e+29
41.10000000000026,6.549281860370912,8.005610086650778,7.512735497068626e+29
41.20000000000026,6.548633610320718,8.002778439903935,7.492301295620023e+29
41.30000000000026,6.547987691255584,7.999955545012835,7.471972009688098e+29
41.40000000000026,6.547344089005662,7.997141353536902,7.451746848522981e+29
41.50000000000026,6.546702789521775,7.9943358174200725,7.431625029225479e+29
41.600000000000264,6.546063778874098,7.991538888986831,7.411605776650453e+29
41.700000000000266,6.54542704325086,7.988750520938293,7.391688323311612e+29
41.80000000000027,6.544792568957057,7.985970666348331,7.3718719092877e+29
41.90000000000027,6.544160342413188,7.983199278659773,7.35215578213005e+29
42.00000000000027,6.543530350154005,7.980436311680608,7.3325391967715e+29
42.10000000000027,6.542902578827277,7.977681719580284,7.313021415436607e+29
42.20000000000027,6.542277015192576,7.974935456886019,7.293601707553189e+29
42.300000000000274,6.541653646120074,7.972197478479176,7.274279349665133e+29
42.400000000000276,6.541032458589357,7.969467739591678,7.255053625346463e+29
42.50000000000028,6.540413439688257,7.966746195802461,7.235923825116644e+29
42.60000000000028,6.539796576611698,7.964032803033991,7.216889246357113e+29
42.70000000000028,6.539181856660551,7.961327517548794,7.197949193228993e+29
42.80000000000028,6.538569267240515,7.958630295946053,7.179102976591989e+29
42.90000000000028,6.537958795861004,7.955941095158243,7.160349913924442e+29
43.000000000000284,6.537350430134052,7.953259872447804,7.141689329244528e+29
43.100000000000286,6.536744157773229,7.9505865854038404,7.123120553032553e+29
43.20000000000029,6.536139966592575,7.947921191938894,7.104642922154378e+29
43.30000000000029,6.535537844505546,7.945263650285728,7.0862557797859e+29
43.40000000000029,6.534937779523972,7.942613918994159,7.067958475338622e+29
43.50000000000029,6.534339759757028,7.939971956927927,7.049750364386252e+29
43.60000000000029,6.533743773410223,7.93733772326161,7.031630808592336e+29
43.700000000000294,6.5331498087843975,7.934711177477569,7.013599175638912e+29
43.800000000000296,6.532557854274731,7.932092279362923,6.995654839156154e+29
43.9000000000003,6.53196789836977,7.929480989006581,6.977797178652997e+29
44.0000000000003,6.531379929650464,7.926877266796293,6.96002557944873e+29
44.1000000000003,6.53079393678921,7.924281073415736,6.942339432605541e+29
44.2000000000003,6.530209908548914,7.9216923698416455,6.924738134861982e+29
44.3000000000003,6.529627833782064,7.91911111734097,6.907221088567374e+29
44.400000000000304,6.529047701429815,7.91653727746807,6.889787701617096e+29
44.500000000000306,6.528469500521078,7.913970812061946,6.87243738738878e+29
44.60000000000031,6.527893220171632,7.911411683243488,6.85516956467937e+29
44.70000000000031,6.527318849583237,7.908859853412782,6.837983657643053e+29
44.80000000000031,6.526746378042766,7.906315285246425,6.820879095730023e+29
44.90000000000031,6.526175794921341,7.9037779416948855,6.803855313626099e+29
45.00000000000031,6.525607089673483,7.901247785979887,6.786911751193148e+29
45.100000000000314,6.525040251836274,7.898724781591829,6.770047853410326e+29
45.200000000000315,6.524475271028525,7.896208892287232,6.753263070316105e+29
45.30000000000032,6.523912136949956,7.893700082086211,6.7365568569511e+29
45.40000000000032,6.523350839380391,7.891198315270003,6.719928673301645e+29
45.50000000000032,6.522791368178952,7.88870355637847,6.703377984244144e+29
45.60000000000032,6.522233713283274,7.886215770207693,6.68690425949017e+29
45.70000000000032,6.521677864708724,7.88373492180755,6.67050697353228e+29
45.800000000000324,6.521123812547626,7.881260976479341,6.654185605590575e+29
45.900000000000325,6.5205715469685055,7.878793899773434,6.637939639559968e+29
46.00000000000033,6.520021058215334,7.8763336574869385,6.62176856395814e+29
46.10000000000033,6.519472336606785,7.873880215661417,6.605671871874208e+29
46.20000000000033,6.5189253725355005,7.871433540580597,6.589649060918057e+29
46.30000000000033,6.518380156467368,7.868993598768139,6.573699633170341e+29
46.40000000000033,6.517836678940799,7.8665603569854134,6.557823095133162e+29
46.500000000000334,6.517294930566024,7.864133782229301,6.542018957681375e+29
46.600000000000335,6.516754902024392,7.861713841730019,6.526286736014548e+29
46.70000000000034,6.516216584067677,7.85930050294899,6.510625949609545e+29
46.80000000000034,6.515679967517398,7.856893733576708,6.49503612217373e+29
46.90000000000034,6.515145043264141,7.854493501530646,6.479516781598785e+29
47.00000000000034,6.514611802266893,7.85209977495318,6.46406745991512e+29
47.10000000000034,6.514080235552383,7.849712522209543,6.448687693246893e+29
47.200000000000344,6.513550334214426,7.84733171188579,6.433377021767589e+29
47.300000000000345,6.513022089413288,7.8449573127868,6.418134989656198e+29
47.40000000000035,6.512495492375039,7.8425892939342905,6.402961145053941e+29
47.50000000000035,6.511970534390931,7.840227624564857,6.387855040021562e+29
47.60000000000035,6.511447206816776,7.83787227412804,6.372816230497172e+29
47.70000000000035,6.510925501072325,7.835523212284391,6.357844276254619e+29
47.80000000000035,6.51040540864067,7.833180408903603,6.342938740862411e+29
47.900000000000354,6.509886921067635,7.830843834062609,6.3280991916431496e+29
48.000000000000355,6.5093700299611905,7.828513458043755,6.313325199633487e+29
48.10000000000036,6.50885472699086,7.826189251332931,6.298616339544587e+29
48.20000000000036,6.508341003887144,7.823871184617795,6.283972189723097e+29
48.30000000000036,6.507828852440945,7.821559228785951,6.269392332112606e+29
48.40000000000036,6.507318264503006,7.819253354923193,6.2548763522155945e+29
48.50000000000036,6.5068092319833415,7.816953534311736,6.240423839055863e+29
48.600000000000364,6.506301746850691,7.814659738428492,6.2260343851414336e+29
48.700000000000365,6.50579580113197,7.812371938943345,6.211707586427919e+29
48.80000000000037,6.5052913869117255,7.810090107717457,6.197443042282348e+29
48.90000000000037,6.5047884963316065,7.807814216801582,6.18324035544745e+29
49.00000000000037,6.50428712158983,7.805544238434418,6.1690991320063755e+29
