Time,Mass,Radius,Lx
23.0,17.64555492954335,10.27,1.3e+30
24.0,17.621580701353434,10.223872452301004,1.3e+30
25.0,17.59793378240367,10.179653055380722,1.3e+30
26.0,17.574596890390122,10.13718558711916,1.3e+30
27.0,17.551554300210867,10.096332031804923,1.3e+30
28.0,17.528791651481523,10.056969872059675,1.3e+30
29.0,17.50629578584988,10.018989864579451,1.3e+30
30.0,17.484054608630224,9.98229419977035,1.3e+30
31.0,17.46205697043425,9.946794968594945,1.3e+30
32.0,17.44029256535825,9.912412877213333,1.3e+30
33.0,17.41875184296697,9.87907616296996,1.3e+30
34.0,17.397425931844065,9.846719675111842,1.3e+30
35.0,17.376306572894343,9.815284091150936,1.3e+30
36.0,17.35538606091137,9.784715245594985,1.3e+30
37.0,17.334657193185524,9.754963552293573,1.3e+30
38.0,17.314113224137195,9.725983505193078,1.3e+30
39.0,17.293747825129113,9.697733245095183,1.3e+30
40.0,17.27355504874918,9.670174182241066,1.3e+30
41.0,17.253529296967343,9.643270666325385,1.3e+30
42.0,17.23366529266227,9.61698969697913,1.3e+30
43.0,17.213958054089634,9.591300668921718,1.3e+30
44.0,17.194402871926865,9.566175146928272,1.3e+30
45.0,17.174995288581815,9.541586666531554,1.3e+30
46.0,17.155731079496835,9.5175105570139,1.3e+30
47.0,17.136606236216668,9.493923783769864,1.3e+30
48.0,17.117616951019862,9.470804807556071,1.3e+30
49.0,17.09875960293979,9.448133458507847,1.3e+30
50.0,17.080030745023894,9.425890823105984,1.3e+30
51.0,17.06142709269893,9.404059142531988,1.3e+30
52.0,17.042945513126433,9.38262172106532,1.3e+30
53.0,17.024583015446744,9.361562843357751,1.3e+30
54.0,17.006336741822054,9.340867699574638,1.3e+30
55.0,16.988203959199506,9.320522317524015,1.3e+30
56.0,16.9701820517244,9.300513501007014,1.3e+30
57.0,16.952268513741537,9.280828773719053,1.3e+30
58.0,16.934460943329608,9.26145632811411,1.3e+30
59.0,16.916757036319535,9.242384978715444,1.3e+30
60.0,16.89915458075297,9.223604119417885,1.3e+30
61.0,16.881651451741778,9.205103684379917,1.3e+30
62.0,16.864245606693384,9.186874112150228,1.3e+30
63.0,16.846935080870498,9.168906312713661,1.3e+30
64.0,16.82971798325683,9.151191637176657,1.3e+30
65.0,16.812592492703306,9.133721849843099,1.3e+30
66.0,16.795556854331693,9.116489102458331,1.3e+30
67.0,16.77860937617485,9.099485910422958,1.3e+30
68.0,16.761748426034686,9.08270513079869,1.3e+30
69.0,16.74497242854078,9.066139941947045,1.3e+30
70.0,16.72827986239409,9.049783824657883,1.3e+30
71.0,16.711669257781633,9.033630544639117,1.3e+30
72.0,16.69513919394931,9.017674136251745,1.3e+30
73.0,16.678688296921084,9.001908887385635,1.3e+30
74.0,16.662315237353862,8.98632932538161,1.3e+30
75.0,16.64601872851823,8.970930203914323,1.3e+30
76.0,16.629797524396114,8.955706490758526,1.3e+30
77.0,16.613650417887147,8.940653356368365,1.3e+30
78.0,16.597576239116183,8.925766163205928,1.3e+30
79.0,16.581573853835028,8.911040455760936,1.3e+30
80.0,16.565642161912052,8.896471951208627,1.3e+30
81.0,16.549780095903763,8.882056530657646,1.3e+30
82.0,16.533986619702986,8.867790230943848,1.3e+30
83.0,16.51826072725862,8.853669236929749,1.3e+30
84.0,16.502601441362383,8.839689874272787,1.3e+30
85.0,16.487007812498277,8.82584860262861,1.3e+30
86.0,16.471478917750844,8.812142009258437,1.3e+30
87.0,16.456013859768543,8.798566803012092,1.3e+30
88.0,16.440611765778876,8.78511980866053,1.3e+30
89.0,16.425271786652107,8.77179796155389,1.3e+30
90.0,16.409993096010687,8.758598302582886,1.3e+30
91.0,16.394774889381623,8.745517973423164,1.3e+30
92.0,16.379616383389322,8.732554212043844,1.3e+30
93.0,16.36451681498653,8.7197043484628,1.3e+30
94.0,16.349475440721168,8.70696580073266,1.3e+30
95.0,16.334491536037053,8.694336071142699,1.3e+30
96.0,16.31956439460658,8.681812742622794,1.3e+30
97.0,16.3046933276936,8.669393475336808,1.3e+30
98.0,16.289877663544797,8.657076003453458,1.3e+30
99.0,16.275116746808063,8.644858132083813,1.3e+30
100.0,16.260409937976362,8.63273773437517,1.3e+30
101.0,16.245756612855764,8.620712748751876,1.3e+30
102.0,16.23115616205633,8.608781176294265,1.3e+30
103.0,16.216607990504684,8.596941078247523,1.3e+30
104.0,16.202111516977137,8.585190573652845,1.3e+30
105.0,16.187666173652296,8.57352783709376,1.3e+30
106.0,16.17327140568218,8.561951096550995,1.3e+30
107.0,16.1589266707809,8.55045863135967,1.3e+30
108.0,16.144631438830036,8.539048770263017,1.3e+30
109.0,16.130385191499872,8.527719889557252,1.3e+30
110.0,16.116187421885737,8.516470411322505,1.3e+30
111.0,16.102037634158677,8.505298801735062,1.3e+30
112.0,16.087935343229802,8.494203569456536,1.3e+30
113.0,16.073880074427652,8.483183264095725,1.3e+30
114.0,16.05987136318795,8.472236474739363,1.3e+30
115.0,16.045908754755164,8.461361828547993,1.3e+30
116.0,16.031991803895366,8.450557989413644,1.3e+30
117.0,16.018120074619794,8.43982365667598,1.3e+30
118.0,16.004293139918715,8.429157563893995,1.3e+30
119.0,15.990510581505042,8.418558477670315,1.3e+30
120.0,15.976771989567329,8.408025196525484,1.3e+30
121.0,15.963076962531694,8.397556549819695,1.3e+30
122.0,15.949425106832285,8.3871513967196,1.3e+30
123.0,15.9358160366899,8.376808625207936,1.3e+30
124.0,15.922249373898447,8.36652715113388,1.3e+30
125.0,15.90872474761885,8.356305917302155,1.3e+30
126.0,15.895241794180132,8.346143892598972,1.3e+30
127.0,15.881800156887342,8.33604007115307,1.3e+30
128.0,15.868399485836045,8.325993471530166,1.3e+30
129.0,15.855039437733108,8.316003135959239,1.3e+30
130.0,15.84171967572351,8.30606812958914,1.3e+30
131.0,15.82843986922294,8.296187539774147,1.3e+30
132.0,15.815199693755932,8.286360475387081,1.3e+30
133.0,15.80199883079933,8.276586066158758,1.3e+30
134.0,15.78883696763086,8.26686346204255,1.3e+30
135.0,15.775713797182599,8.257191832602945,1.3e+30
136.0,15.76262901789916,8.247570366427011,1.3e+30
137.0,15.749582333600404,8.237998270557734,1.3e+30
138.0,15.736573453348491,8.228474769948301,1.3e+30
139.0,15.723602091319123,8.218999106936364,1.3e+30
140.0,15.710667966676791,8.20957054073745,1.3e+30
141.0,15.697770803453908,8.200188346956661,1.3e+30
142.0,15.684910330433642,8.1908518171179,1.3e+30
143.0,15.67208628103634,8.181560258209853,1.3e+30
144.0,15.659298393209395,8.172312992248049,1.3e+30
145.0,15.646546409320433,8.163109355852274,1.3e+30
146.0,15.633830076053684,8.153948699838764,1.3e+30
147.0,15.621149144309452,8.14483038882648,1.3e+30
148.0,15.608503369106533,8.135753800856964,1.3e+30
149.0,15.5958925094875,8.126718327027183,1.3e+30
150.0,15.583316328426754,8.117723371134801,1.3e+30
151.0,15.570774592741214,8.108768349335465,1.3e+30
152.0,15.558267073003591,8.099852689811524,1.3e+30
153.0,15.545793543458124,8.09097583245179,1.3e+30
154.0,15.533353781938715,8.082137228541898,1.3e+30
155.0,15.520947569789355,8.073336340464794,1.3e+30
156.0,15.508574691786793,8.064572641411033,1.3e+30
157.0,15.496234936065342,8.05584561509846,1.3e+30
158.0,15.483928094043769,8.047154755500905,1.3e+30
159.0,15.471653960354184,8.038499566585578,1.3e+30
160.0,15.459412332772878,8.029879562058806,1.3e+30
161.0,15.447203012153025,8.021294265119803,1.3e+30
162.0,15.435025802359206,8.012743208222192,1.3e+30
163.0,15.422880510203674,8.004225932842957,1.3e+30
164.0,15.410766945384328,7.995741989258546,1.3e+30
165.0,15.398684920424312,7.987290936327909,1.3e+30
166.0,15.386634250613213,7.978872341282166,1.3e+30
167.0,15.374614753949787,7.9704857795206845,1.3e+30
168.0,15.362626251086176,7.962130834413328,1.3e+30
169.0,15.350668565273558,7.953807097108655,1.3e+30
170.0,15.338741522309201,7.945514166347865,1.3e+30
171.0,15.326844950484858,7.937251648284263,1.3e+30
172.0,15.314978680536473,7.929019156308078,1.3e+30
173.0,15.303142545595156,7.920816310876408,1.3e+30
174.0,15.291336381139383,7.912642739348154,1.3e+30
175.0,15.27956002494839,7.90449807582374,1.3e+30
176.0,15.267813317056719,7.896381960989455,1.3e+30
177.0,15.25609609970988,7.888294041966285,1.3e+30
178.0,15.244408217321112,7.880233972163047,1.3e+30
179.0,15.232749516429173,7.872201411133684,1.3e+30
180.0,15.221119845657176,7.864196024438609,1.3e+30
181.0,15.209519055672404,7.856217483509935,1.3e+30
182.0,15.197946999147085,7.848265465520459,1.3e+30
183.0,15.186403530720108,7.840339653256288,1.3e+30
184.0,15.174888506959642,7.832439734992992,1.3e+30
185.0,15.16340178632663,7.8245654043751305,1.3e+30
186.0,15.151943229139157,7.816716360299107,1.3e+30
187.0,15.140512697537615,7.808892306799178,1.3e+30
188.0,15.129110055450711,7.801092952936539,1.3e+30
189.0,15.117735168562236,7.793318012691408,1.3e+30
190.0,15.1063879042786,7.785567204857978,1.3e+30
191.0,15.095068131697117,7.777840252942184,1.3e+30
192.0,15.08377572157499,7.770136885062138,1.3e+30
193.0,15.072510546299016,7.762456833851207,1.3e+30
194.0,15.061272479855965,7.7547998363636275,1.3e+30
195.0,15.050061397803612,7.747165633982565,1.3e+30
196.0,15.038877177242423,7.739553972330562,1.3e+30
197.0,15.02771969678786,7.731964601182293,1.3e+30
198.0,15.016588836543306,7.724397274379539,1.3e+30
199.0,15.005484478073567,7.716851749748361,1.3e+30
200.0,14.994406504378961,7.709327789018339,1.3e+30
201.0,14.98335479986997,7.701825157743878,1.3e+30
202.0,14.97232925034243,7.694343625227464,1.3e+30
203.0,14.961329742953264,7.686882964444871,1.3e+30
204.0,14.950356166196725,7.679442951972177,1.3e+30
205.0,14.939408409881143,7.67202336791464,1.3e+30
206.0,14.928486365106172,7.664623995837287,1.3e+30
207.0,14.91758992424051,7.6572446226972115,1.3e+30
208.0,14.906718980900083,7.64988503877753,1.3e+30
209.0,14.89587342992669,7.642545037622918,1.3e+30
210.0,14.885053167367088,7.635224415976735,1.3e+30
211.0,14.87425809045251,7.6279229737196275,1.3e+30
212.0,14.863488097578598,7.620640513809612,1.3e+30
213.0,14.852743088285758,7.61337684222358,1.3e+30
214.0,14.842022963239902,7.606131767900198,1.3e+30
215.0,14.831327624213595,7.598905102684128,1.3e+30
216.0,14.820656974067562,7.591696661271589,1.3e+30
217.0,14.810010916732594,7.584506261157152,1.3e+30
218.0,14.799389357191785,7.577333722581793,1.3e+30
219.0,14.78879220146315,7.570178868482145,1.3e+30
220.0,14.778219356582566,7.5630415244409175,1.3e+30
221.0,14.767670730587069,7.555921518638428,1.3e+30
222.0,14.757146232498457,7.548818681805269,1.3e+30
223.0,14.746645772307236,7.541732847176043,1.3e+30
224.0,14.736169260956864,7.53466385044411,1.3e+30
225.0,14.725716610328304,7.527611529717406,1.3e+30
226.0,14.715287733224876,7.520575725475192,1.3e+30
227.0,14.704882543357405,7.513556280525814,1.3e+30
228.0,14.69450095532964,7.506553039965365,1.3e+30
229.0,14.684142884623968,7.499565851137273,1.3e+30
230.0,14.673808247587383,7.492594563592796,1.3e+30
231.0,14.663496961417732,7.485639029052324,1.3e+30
232.0,14.653208944150215,7.478699101367596,1.3e+30
233.0,14.64294411464414,7.471774636484676,1.3e+30
234.0,14.63270239256992,7.464865492407759,1.3e+30
235.0,14.622483698396318,7.457971529163746,1.3e+30
236.0,14.612287953377928,7.451092608767571,1.3e+30
237.0,14.60211507954288,7.444228595188282,1.3e+30
238.0,14.59196499968078,7.437379354315816,1.3e+30
239.0,14.581837637330866,7.430544753928501,1.3e+30
240.0,14.571732916770378,7.42372466366122,1.3e+30
241.0,14.561706681167442,7.416942413402749,1.2844672346620165e+30
242.0,14.551813235042774,7.410220884922078,1.269183229129245e+30
243.0,14.54205023439278,7.4035592862921025,1.2541429960944086e+30
244.0,14.532415386332067,7.396956837758001,1.2393416681912428e+30
245.0,14.522906447782917,7.3904127715469805,1.224774494634076e+30
246.0,14.51352122420286,7.38392633168014,1.2104368379647861e+30
247.0,14.50425756834912,7.377496773786458,1.1963241709032838e+30
248.0,14.495113379078763,7.371123364918979,1.1824320732978219e+30
249.0,14.486086600183398,7.3648053833732074,1.1687562291715844e+30
250.0,14.477175219257349,7.35854211850773,1.1552924238621415e+30
251.0,14.468377266598212,7.352332870567118,1.142036541250493e+30
252.0,14.459690814138808,7.346176950507093,1.1289845610765539e+30
253.0,14.451113974409507,7.340073679822002,1.1161325563380528e+30
254.0,14.442644899529988,7.334022390374592,1.1034766907699375e+30
255.0,14.434281780229504,7.32802242422809,1.0910132164014872e+30
256.0,14.426022844894765,7.3220731334806235,1.0787384711884467e+30
257.0,14.417866358644567,7.316173880101944,1.066648876717594e+30
258.0,14.409810622430339,7.310324035772476,1.0547409359812557e+30
259.0,14.401853972161817,7.304522981724688,1.043011231219377e+30
260.0,14.393994777857037,7.298770108586776,1.0314564218268452e+30
261.0,14.386231442815925,7.29306481622864,1.0200732423238525e+30
262.0,14.378562402816733,7.2874065136101756,1.0088585003871654e+30
263.0,14.370986125334646,7.281794618631837,9.97809074940249e+29
264.0,14.363501108781847,7.276228557987476,9.86921914300273e+29
265.0,14.356105881768421,7.270707767019438,9.76194034380097e+29
266.0,14.348799002383432,7.265231689575911,9.656225169434025e+29
267.0,14.341579057495569,7.25979977787048,9.552045079112098e+29
268.0,14.334444662072787,7.254411492343905,9.449372157180817e+29
269.0,14.327394458520338,7.2490663015280905,9.348179097163752e+29
270.0,14.32042711603666,7.243763681912208,9.248439186269674e+29
271.0,14.31354132998658,7.238503117810982,9.150126290349335e+29
272.0,14.306735821291303,7.233284101235094,9.053214839287144e+29
273.0,14.300009335834714,7.228106131763697,8.957679812813632e+29
274.0,14.293360643885462,7.222968716418997,8.863496726725061e+29
275.0,14.286788539534403,7.2178713695429195,8.770641619497121e+29
276.0,14.280291840146914,7.212813612675776,8.67909103928e+29
277.0,14.273869385829656,7.207794974436965,8.588822031262668e+29
278.0,14.267520038911348,7.202814990407653,8.499812125394603e+29
279.0,14.261242683437159,7.197873203015407,8.412039324453583e+29
280.0,14.25503622467629,7.192969161420763,8.325482092448627e+29
281.0,14.248899588642395,7.188102421405711,8.240119343347493e+29
282.0,14.242831721626434,7.183272545264057,8.155930430118526e+29
283.0,14.23683158974162,7.178479101693643,8.072895134077068e+29
284.0,14.230898178480105,7.173721665690392,7.990993654526835e+29
285.0,14.225030492281055,7.168999818444181,7.91020659868719e+29
286.0,14.219227554109796,7.164313147236447,7.830514971897375e+29
287.0,14.213488405047716,7.15966124533961,7.751900168089198e+29
288.0,14.207812103892604,7.155043711918156,7.674343960519892e+29
289.0,14.20219772676913,7.150460151931483,7.597828492757175e+29
290.0,14.196644366749197,7.145910176038363,7.522336269908814e+29
291.0,14.191151133481853,7.141393400503109,7.447850150089217e+29
292.0,14.185717152832508,7.136909447103317,7.374353336115894e+29
293.0,14.180341566531208,7.132457943039249,7.301829367428829e+29
294.0,14.175023531829686,7.128038520844752,7.230262112226009e+29
295.0,14.169762221166948,7.123650818299755,7.159635759808663e+29
296.0,14.164556821843183,7.1192944783442655,7.089934813129903e+29
297.0,14.159406535701716,7.114969148993881,7.021144081540704e+29
298.0,14.154310578818832,7.110674483256762,6.953248673727363e+29
299.0,14.149268181201213,7.106410139052064,6.886233990834747e+29
300.0,14.144278586490799,7.102175779129787,6.820085719769847e+29
301.0,14.139341051676858,7.097971070992033,6.754789826680338e+29
302.0,14.134454846815078,7.093795686815637,6.690332550602994e+29
303.0,14.129619254753475,7.089649303376147,6.626700397277004e+29
304.0,14.124833570864935,7.085531601973157,6.563880133117363e+29
305.0,14.120097102786218,7.081442268356918,6.501858779343712e+29
306.0,14.115409170163241,7.077380992656263,6.440623606260096e+29
307.0,14.110769104402463,7.073347469307777,6.380162127681303e+29
308.0,14.106176248428218,7.069341396986218,6.320462095501564e+29
309.0,14.10162995644584,7.065362478536169,6.261511494401512e+29
310.0,14.097129593710406,7.061410420904858,6.203298536689475e+29
311.0,14.09267453630096,7.0574849350761895,6.145811657273257e+29
312.0,14.088264170900072,7.053585736005919,6.0890395087586905e+29
313.0,14.083897894578584,7.049712542557959,6.032970956671398e+29
314.0,14.079575114585412,7.045865077441821,5.977595074798263e+29
315.0,14.075295248142254,7.042043067151125,5.9229011406452495e+29
316.0,14.071057722243108,7.0382462419032255,5.8688786310082964e+29
317.0,14.066861973458428,7.0344743355798585,5.8155172176541475e+29
318.0,14.062707447743838,7.030727085668849,5.762806763108028e+29
319.0,14.058593600253259,7.0270042332068385,5.710737316545211e+29
320.0,14.054519895156343,7.023305522723009,5.659299109783595e+29
321.0,14.050485805460102,7.019630702183788,5.608482553374502e+29
322.0,14.046490812834621,7.015979522938538,5.558278232788992e+29
323.0,14.04253440744275,7.012351739666174,5.5086769046970675e+29
324.0,14.038616087773669,7.008747110322728,5.459669493337238e+29
325.0,14.03473536048024,7.005165396089813,5.411247086973971e+29
326.0,14.030891740220031,7.001606361324013,5.36340093444064e+29
327.0,14.027084749499924,6.998069773507121,5.316122441765654e+29
328.0,14.02331391852422,6.994555403197266,5.26940316887952e+29
329.0,14.019578785046157,6.991063023980892,5.223234826400658e+29
330.0,14.015878894222737,6.987592412425556,5.17760927249785e+29
331.0,14.01221379847279,6.984143348033552,5.132518509827274e+29
332.0,14.008583057338193,6.980715613196354,5.087954682542132e+29
333.0,14.00498623734817,6.977308993149821,5.043910073372929e+29
334.0,14.001422911886577,6.973923275930208,5.000377100776548e+29
335.0,13.997892661062115,6.970558252330905,4.957348316152278e+29
336.0,13.994395071581401,6.96721371585997,4.914816401123043e+29
337.0,13.990929736624802,6.9638894626983365,4.8727741648801144e+29
338.0,13.987496255724988,6.960585291658793,4.831214541589632e+29
339.0,13.984094234648131,6.957301004145641,4.790130587859331e+29
340.0,13.980723285277671,6.954036404115056,4.749515480263897e+29
341.0,13.97738302550061,6.95079129803613,4.709362512927425e+29
342.0,13.974073079096243,6.947565494852574,4.6696650951615045e+29
343.0,13.9707930756273,6.944358805945095,4.630416749157489e+29
344.0,13.967542650333403,6.9411710450944,4.591611107731561e+29
345.0,13.964321444026819,6.9380020284448385,4.553241912121222e+29
346.0,13.96112910299042,6.934851574468672,4.51530300983191e+29
347.0,13.957965278877824,6.931719503930939,4.477788352532437e+29
348.0,13.954829628615647,6.92860563985494,4.4406919939980284e+29
349.0,13.951721814307819,6.925509807488281,4.4040080880997476e+29
350.0,13.948641503141918,6.922431834269528,4.367730886839109e+29
351.0,13.945588367297479,6.919371549795391,4.331854738426773e+29
352.0,13.942562083856208,6.916328785788496,4.296374085404192e+29
353.0,13.93956233471409,6.913303376065683,4.261283462807125e+29
354.0,13.936588806495314,6.910295156506841,4.226577496369984e+29
355.0,13.933641190467991,6.907303965024282,4.19225090076999e+29
356.0,13.930719182461623,6.9043296415326125,4.158298477910139e+29
357.0,13.927822482786262,6.901372027919125,4.124715115240021e+29
358.0,13.924950796153352,6.89843096801469,4.0914957841135555e+29
359.0,13.922103831598182,6.895506307565112,4.058635538182727e+29
360.0,13.919281302403935,6.892597894202998,4.0261295118264325e+29
361.0,13.916482926027282,6.889705577420072,3.993972918613588e+29
362.0,13.913708424025499,6.886829208539963,3.962161049799646e+29
363.0,13.910957521985052,6.883968640691446,3.930689272855705e+29
364.0,13.908229949451645,6.88112372878212,3.899553030029431e+29
365.0,13.90552543986166,6.878294329472533,3.8687478369370064e+29
366.0,13.902843730474995,6.875480301150738,3.838269281185354e+29
367.0,13.90018456230924,6.872681503907254,3.808113021023908e+29
368.0,13.897547680075174,6.869897799510463,3.778274784025233e+29
369.0,13.894932832113552,6.86712905138239,3.7487503657937614e+29
370.0,13.892339770333145,6.864375124574913,3.719535628702023e+29
371.0,13.889768250150016,6.861635885746329,3.690626500653667e+29
372.0,13.887218030427999,6.85891120313833,3.6620189738726696e+29
373.0,13.884688873420341,6.856200946553347,3.633709103718077e+29
374.0,13.882180544712515,6.853504987332267,3.605693007523708e+29
375.0,13.879692813166134,6.850823198332517,3.577966863462195e+29
376.0,13.877225450863975,6.8481554539065,3.55052690943282e+29
377.0,13.874778233056077,6.845501629880381,3.523369441972554e+29
378.0,13.872350938106884,6.8428616035332315,3.496490815189784e+29
379.0,13.869943347443417,6.840235253576493,3.469887439720184e+29
