Time,Mass,Radius,Lx
23.0,7.561720420378056,10.27,1.3e+30
23.1,7.553616208664708,10.256945643902604,1.2752474159660922e+30
23.200000000000003,7.54567883651385,10.24406836056881,1.2510700187002163e+30
23.300000000000004,7.537904058948133,10.231364953572909,1.2274520488710872e+30
23.400000000000006,7.530287758159888,10.218832284072096,1.204378243952064e+30
23.500000000000007,7.522825939213407,10.206467270243804,1.1818338205272531e+30
23.60000000000001,7.515514725904154,10.194266886686929,1.159804457299554e+30
23.70000000000001,7.5083503567690615,10.1822281637909,1.1382762787699839e+30
23.80000000000001,7.501329181242217,10.170348187076272,1.117235839559073e+30
23.900000000000013,7.494447655950495,10.15862409651028,1.0966701093425096e+30
24.000000000000014,7.487702341143851,10.147053085800515,1.0765664583745275e+30
24.100000000000016,7.481089897255196,10.135632401669648,1.0569126435737776e+30
24.200000000000017,7.474607081584966,10.124359343113996,1.0376967951476133e+30
24.30000000000002,7.46825074510565,10.113231260648348,1.0189074037318373e+30
24.40000000000002,7.462017829381749,10.10224555553948,1.0005333080240303e+30
24.50000000000002,7.455905363600783,10.09139967903045,9.825636828895939e+29
24.600000000000023,7.449910461711134,10.080691131557671,9.64988027920604e+29
24.700000000000024,7.444030319662681,10.070117461962612,9.477961564284822e+29
24.800000000000026,7.43826221274631,10.059676266699748,9.309781848523675e+29
24.900000000000027,7.432603493028566,10.04936518904239,9.145245225658937e+29
25.00000000000003,7.427051586877819,10.039181918287703,8.9842586206586e+29
25.10000000000003,7.421603992578493,10.02912418896231,8.826731695270362e+29
25.20000000000003,7.416258278030002,10.019189780029581,8.672576757080504e+29
25.300000000000033,7.4110120785271905,10.009376514099735,8.521708671939781e+29
25.400000000000034,7.405863094619201,9.999682256643727,8.37404477961903e+29
25.500000000000036,7.400809090043785,9.990104915211777,8.229504812563264e+29
25.600000000000037,7.395847889734225,9.980642438657407,8.088010817618802e+29
25.70000000000004,7.390977377896114,9.97129281636766,7.949487080613647e+29
25.80000000000004,7.386195496151364,9.962054077500191,7.813860053676446e+29
25.90000000000004,7.381500241746916,9.952924290227799,7.68105828518451e+29
26.000000000000043,7.376889665825706,9.94390156099092,7.551012352236112e+29
26.100000000000044,7.372361871757573,9.934984033758587,7.423654795546813e+29
26.200000000000045,7.3679150135278375,9.926169889298214,7.298920056673982e+29
26.300000000000047,7.363547294181407,9.91745734445461,7.176744417477727e+29
26.40000000000005,7.3592569643203385,9.90884465143851,7.057065941730487e+29
26.50000000000005,7.355042320652853,9.900330097124934,6.939824418791223e+29
26.60000000000005,7.350901704591894,9.89191200236155,6.824961309263782e+29
26.700000000000053,7.346833500901393,9.883588721287317,6.712419692562433e+29
26.800000000000054,7.342836136388473,9.875358640661483,6.602144216310775e+29
26.900000000000055,7.338908078639883,9.867220179203144,6.494081047503424e+29
27.000000000000057,7.335047834801047,9.859171786941449,6.388177825362774e+29
27.10000000000006,7.331253950396148,9.85121194457648,6.284383615826022e+29
27.20000000000006,7.327525008187737,9.843339162850963,6.1826488676003266e+29
27.30000000000006,7.323859627074436,9.835551981932722,6.082925369726546e+29
27.400000000000063,7.320256461025318,9.827848970807985,5.9851662105945e+29
27.500000000000064,7.3167141980496515,9.820228726685496,5.88932573835504e+29
27.600000000000065,7.313231559200704,9.812689874411399,5.795359522676454e+29
27.700000000000067,7.3098072976123785,9.805231065894871,5.7032243177949045e+29
27.800000000000068,7.306440197567495,9.797850979544458,5.612878026810644e+29
27.90000000000007,7.303129073596572,9.790548319715057,5.524279667183711e+29
28.00000000000007,7.299872769606009,9.78332181616539,5.437389337384708e+29
28.100000000000072,7.296670158034619,9.776170223526027,5.3521681846580304e+29
28.200000000000074,7.293520139037495,9.769092320777718,5.268578373856659e+29
28.300000000000075,7.290421639696234,9.762086910740022,5.18658305730925e+29
28.400000000000077,7.287373613254572,9.755152819570087,5.106146345681845e+29
28.500000000000078,7.284375038378549,9.748288896271449,5.027233279798007e+29
28.60000000000008,7.2814249184403135,9.741494012212783,4.9498098033826454e+29
28.70000000000008,7.278522280824741,9.734767060656402,4.873842736696151e+29
28.800000000000082,7.27566617625807,9.72810695629643,4.7992997510267955e+29
28.900000000000084,7.27285567815777,9.721512634806482,4.726149344010585e+29
29.000000000000085,7.270089882002909,9.714983052396716,4.6543608157490084e+29
29.100000000000087,7.267367904724304,9.708517185380142,4.5839042456962184e+29
29.200000000000088,7.264688884113752,9.702114029747968,4.514750470288339e+29
29.30000000000009,7.26205197825171,9.695772600753948,4.446871061288627e+29
29.40000000000009,7.259456364952759,9.689491932507476,4.3802383048232406e+29
29.500000000000092,7.256901241228239,9.683271077575341,4.3148251810833335e+29
29.600000000000094,7.254385822765496,9.677109106591969,4.2506053446701296e+29
29.700000000000095,7.25190934342313,9.671005107878027,4.187553105560535e+29
29.800000000000097,7.24947105474173,9.664958187067185,4.1256434106716715e+29
29.900000000000098,7.24707022546955,9.65896746674095,4.064851826003586e+29
30.0000000000001,7.24470614110263,9.653032086071374,4.0051545193401116e+29
30.1000000000001,7.2423781034388695,9.647151200471514,3.94652824348869e+29
30.200000000000102,7.240085430145575,9.641323981253487,3.888950320040601e+29
30.300000000000104,7.237827454340045,9.635549615293955,3.832398623633823e+29
30.400000000000105,7.235603524182741,9.629827304706941,3.7768515667013476e+29
30.500000000000107,7.2334130024826315,9.624156266523757,3.7222880846884595e+29
30.600000000000108,7.231255266314302,9.618535732379994,3.668687621723067e+29
30.70000000000011,7.229129706646438,9.612964948209338,3.616030116723792e+29
30.80000000000011,7.227035727981306,9.607443173944127,3.564295989931064e+29
30.900000000000112,7.224972748004879,9.601969683222517,3.513466129847021e+29
31.000000000000114,7.222940197247232,9.59654376310207,3.463521880570546e+29
31.100000000000115,7.220937518752907,9.591164713779674,3.414445029514244e+29
31.200000000000117,7.2189641677608805,9.585831848317664,3.3662177954906755e+29
31.300000000000118,7.2170196113938605,9.580544492375939,3.318822817155595e+29
31.40000000000012,7.21510332835658,9.575301983950075,3.27224314179641e+29
31.50000000000012,7.213214808642812,9.570103673115176,3.226462214454486e+29
31.600000000000122,7.21135355325082,9.564948921775416,3.181463867370334e+29
31.700000000000124,7.209519073906973,9.559837103419145,3.1372323097411212e+29
31.800000000000125,7.207710892797263,9.554767602879373,3.0937521177803094e+29
31.900000000000126,7.2059285423064745,9.549739816099605,3.0510082250695967e+29
32.00000000000013,7.204171564764759,9.54475314990486,3.008985913193684e+29
32.10000000000013,7.202439512201384,9.539807021777726,2.967670802648728e+29
32.20000000000013,7.200731946105423,9.534900859639427,2.927048844015658e+29
32.30000000000013,7.199048437193181,9.530034101635712,2.887106309389852e+29
32.400000000000134,7.197388565182121,9.525206195927499,2.847829784058959e+29
32.500000000000135,7.195751918571115,9.520416600486136,2.8092061584209465e+29
32.600000000000136,7.194138094426796,9.515664782893216,2.7712226201347297e+29
32.70000000000014,7.192546698175847,9.510950220144833,2.7338666464959975e+29
32.80000000000014,7.190977343403016,9.506272398460116,2.697125997031113e+29
32.90000000000014,7.189429651654704,9.501630813094057,2.6609887063022138e+29
33.00000000000014,7.187903252247936,9.497024968154438,2.6254430769168613e+29
33.10000000000014,7.186397782084563,9.492454376422803,2.5904776727358407e+29
33.200000000000145,7.184912885470525,9.487918559179406,2.556081312272905e+29
33.300000000000146,7.183448213940028,9.483417046031978,2.5222430622804853e+29
33.40000000000015,7.182003426084475,9.478949374748302,2.4889522315155983e+29
33.50000000000015,7.180578187386026,9.474515091092458,2.4561983646803512e+29
33.60000000000015,7.1791721700556215,9.470113748664671,2.423971236531668e+29
33.70000000000015,7.177785052875356,9.465744908744668,2.392260846155017e+29
33.80000000000015,7.176416521045062,9.4614081401385,2.3610574113971066e+29
33.900000000000155,7.175066266032979,9.457103019028699,2.330351363452682e+29
34.000000000000156,7.1737339854303865,9.452829128827716,2.3001333416007166e+29
34.10000000000016,7.172419382810081,9.448586060034595,2.2703941880854615e+29
34.20000000000016,7.171122167588586,9.444373410094736,2.241124943137937e+29
34.30000000000016,7.169842054891986,9.44019078326275,2.212316840133641e+29
34.40000000000016,7.168578765425269,9.436037790468314,2.183961300882343e+29
34.50000000000016,7.167332025345084,9.431914049184895,2.156049931046002e+29
34.600000000000165,7.166101566135813,9.427819183301397,2.128574515680966e+29
34.700000000000166,7.164887124488851,9.423752822996535,2.101527014900721e+29
34.80000000000017,7.16368844218501,9.419714604615983,2.074899559655616e+29
34.90000000000017,7.162505265979959,9.415704170552141,2.0486844476260637e+29
35.00000000000017,7.161337347492599,9.411721169126537,2.0228741392258683e+29
35.10000000000017,7.1601844430962975,9.407765254474747,1.9974612537124098e+29
35.20000000000017,7.159046313812907,9.403836086433808,1.9724385654005453e+29
35.300000000000175,7.1579227252094695,9.399933330432043,1.947798999977169e+29
35.400000000000176,7.156813447297547,9.396056657381283,1.923535630913485e+29
35.50000000000018,7.1557182544350955,9.392205743571358,1.8996416759721296e+29
35.60000000000018,7.154636925230811,9.388380270566891,1.8761104938063863e+29
35.70000000000018,7.153569242450882,9.3845799251063,1.852935580648803e+29
35.80000000000018,7.152514992928067,9.380804399002901,1.8301105670866325e+29
35.90000000000018,7.151473967473057,9.377053389048212,1.8076292149215757e+29
36.000000000000185,7.15044596078803,9.373326596917238,1.7854854141114013e+29
36.100000000000186,7.149430771382355,9.369623729075801,1.7636731797910845e+29
36.20000000000019,7.148428201490383,9.365944496689862,1.742186649371188e+29
36.30000000000019,7.147438056991258,9.3622886155367,1.7210200797112718e+29
36.40000000000019,7.146460147330709,9.358655805918051,1.7001678443661947e+29
36.50000000000019,7.145494285444743,9.355045792575,1.6796244309032354e+29
36.60000000000019,7.144540287685217,9.351458304604748,1.6593844382880184e+29
36.700000000000195,7.1435979737472115,9.347893075379043,1.639442574337305e+29
36.800000000000196,7.14266716659817,9.344349842464416,1.6197936532367596e+29
36.9000000000002,7.141747692408757,9.340828347544019,1.600432593121863e+29
37.0000000000002,7.140839380485374,9.337328336341136,1.5813544137202013e+29
37.1000000000002,7.13994206320431,9.333849558544266,1.5625542340534127e+29
37.2000000000002,7.139055575947465,9.330391767733813,1.5440272701971278e+29
37.3000000000002,7.138179757039608,9.326954721310242,1.525768833097287e+29
37.400000000000205,7.137314447687136,9.323538180423784,1.5077743264412714e+29
37.500000000000206,7.1364594919182816,9.320141909905557,1.4900392445823306e+29
37.60000000000021,7.135614736524741,9.316765678200133,1.4725591705158318e+29
37.70000000000021,7.1347800310046825,9.313409257299517,1.4553297739059074e+29
37.80000000000021,7.133955227507089,9.310072422678427,1.4383468091611125e+29
37.90000000000021,7.133140180777417,9.306754953230984,1.4216061135577536e+29
38.00000000000021,7.13233474810452,9.303456631208633,1.405103605409581e+29
38.100000000000215,7.131538789268814,9.30017724215939,1.3888352822825872e+29
38.200000000000216,7.130752166491647,9.296916574868298,1.3727972192536795e+29
38.30000000000022,7.129974744385848,9.29367442129912,1.3569855672120395e+29
38.40000000000022,7.129206389907411,9.290450576537204,1.3413965512020178e+29
38.50000000000022,7.128446972308303,9.28724483873352,1.3260264688064378e+29
38.60000000000022,7.127696363090347,9.284057009049832,1.3108716885692269e+29
38.70000000000022,7.126954435960178,9.280886891604986,1.2959286484563163e+29
38.800000000000225,7.126221066785205,9.277734293422276,1.2811938543537882e+29
38.900000000000226,7.125496133550603,9.274599024377865,1.2666638786022706e+29
39.00000000000023,7.124779516317261,9.271480897150282,1.2523353585666222e+29
39.10000000000023,7.1240710971807,9.268379727170872,1.2382049952399632e+29
39.20000000000023,7.1233707602309035,9.265295332575306,1.2242695518811458e+29
39.30000000000023,7.122678391513068,9.262227534156015,1.2105258526847795e+29
39.40000000000023,7.121993878989224,9.259176155315593,1.1969707814829523e+29
39.500000000000234,7.121317112500725,9.256141022021135,1.1836012804778177e+29
39.600000000000236,7.1206479837315655,9.253121962759467,1.1704143490042328e+29
39.70000000000024,7.119986386172528,9.250118808493275,1.1574070423216662e+29
39.80000000000024,7.119332215086115,9.247131392618108,1.1445764704346093e+29
39.90000000000024,7.118685367472267,9.244159550920218,1.1319197969407486e+29
40.00000000000024,7.1180457420348295,9.241203121535248,1.1194342379061807e+29
40.10000000000024,7.117413239148766,9.238261944907713,1.1071170607669673e+29
40.200000000000244,7.116787760828086,9.2353358637513,1.094965583256349e+29
40.300000000000246,7.116169210694481,9.232424723009935,1.0829771723569608e+29
40.40000000000025,7.115557493946635,9.22952836981961,1.0711492432774014e+29
40.50000000000025,7.114952517330218,9.22664665347096,1.0594792584525336e+29
40.60000000000025,7.114354189108522,9.223779425372564,1.0479647265669115e+29
40.70000000000025,7.113762419033732,9.220926539014973,1.0366032016007388e+29
40.80000000000025,7.113177118318823,9.218087849935422,1.0253922818977894e+29
40.900000000000254,7.11259819961006,9.215263215683224,1.0143296092547306e+29
41.000000000000256,7.11202557696009,9.21245249578586,1.0034128680313061e+29
41.10000000000026,7.111459165801609,9.209655551715674,9.926397842808516e+28
41.20000000000026,7.11089888292159,9.206872246857259,9.820081249006331e+28
41.30000000000026,7.110344646436064,9.204102446475444,9.715156968015053e+28
41.40000000000026,7.1097963757654385,9.201346017683884,9.611603460964079e+28
41.50000000000026,7.10925399161033,9.198602829414291,9.509399573072273e+28
41.600000000000264,7.108717415927917,9.195872752386201,9.408524525895664e+28
41.700000000000266,7.10818657190879,9.193155659077352,9.308957909749736e+28
41.80000000000027,7.107661383954281,9.190451423694622,9.210679676302004e+28
41.90000000000027,7.107141777654277,9.187759922145496,9.113670131330639e+28
42.00000000000027,7.106627679765494,9.185081032010102,9.017909927645013e+28
42.10000000000027,7.106119018190202,9.182414632513751,8.92338005816422e+28
42.20000000000027,7.105615721955396,9.1797606045,8.83006184914963e+28
43.20000000000027,7.100850082451034,9.153859004660976,8.108803961522385e+28
44.20000000000027,7.096303956583518,9.128757025481933,8.029403241573183e+28
45.20000000000027,7.091837947336522,9.104250393292341,7.952530616378009e+28
46.20000000000027,7.087448942573661,9.080312074283102,7.878052278901058e+28
47.20000000000027,7.083134015284433,9.05691681767343,7.8058442058278074e+28
48.20000000000027,7.078890408908546,9.034041003104742,7.735791252901248e+28
49.20000000000027,7.074715524102128,9.011662503965757,7.667786350697351e+28
50.20000000000027,7.07060690677789,8.989760564698285,7.601729787899374e+28
51.20000000000027,7.066562237273818,8.968315690405795,7.537528571019233e+28
52.20000000000027,7.062579320524073,8.947309547316781,7.4750958510962e+28
53.20000000000027,7.058656077122043,8.926724872849643,7.4143504092330275e+28
54.20000000000027,7.054790535179421,8.90654539419122,7.355216193951538e+28
55.20000000000027,7.050980822897097,8.886755754441861,7.297621904299392e+28
56.20000000000027,7.0472251617739285,8.867341445500612,7.2415006134461985e+28
57.20000000000027,7.043521860388313,8.848288746967194,7.186789428194137e+28
58.20000000000027,7.039869308695116,8.829584670426346,7.133429180415245e+28
59.20000000000027,7.036265972787179,8.811216908556657,7.081364146930524e+28
60.20000000000027,7.032710390076389,8.793173788572243,7.030541794778197e+28
61.20000000000027,7.029201164854327,8.775444229562941,6.980912549190852e+28
62.20000000000027,7.025736964196918,8.758017703348697,6.9324295819228825e+28
63.20000000000027,7.022316514181345,8.740884198507064,6.885048617848188e+28
64.20000000000027,7.018938596386876,8.724034187270835,6.8387277579899705e+28
65.20000000000027,7.015602044654238,8.707458595025926,6.793427317354794e+28
66.20000000000027,7.012305742080759,8.691148772168715,6.7491096761266695e+28
67.20000000000027,7.009048618230862,8.67509646810766,6.705739142937256e+28
68.20000000000027,7.005829646543499,8.65929380721652,6.663281829068738e+28
69.20000000000027,7.00264784191996,8.64373326656636,6.621705532569271e+28
70.20000000000027,6.999502258477086,8.6284076552811,6.580979631369264e+28
71.20000000000027,6.996391987452366,8.613310095376907,6.541074984582308e+28
72.20000000000027,6.99331615524867,8.598434003959568,6.501963841258927e+28
73.20000000000027,6.990273921607505,8.58377307666619,6.463619755935854e+28
74.20000000000027,6.987264477900726,8.56932127224854,6.426017510389647e+28
75.20000000000027,6.984287045531524,8.555072798205074,6.389133041062092e+28
76.20000000000027,6.981340874436351,8.541022097377377,6.352943371676957e+28
77.20000000000027,6.978425241680175,8.527163835434518,6.317426550614074e+28
78.20000000000027,6.975539450138116,8.513492889175861,6.282561592648145e+28
79.20000000000027,6.972682827257126,8.500004335589036,6.248328424696583e+28
80.20000000000027,6.969854723891907,8.486693441605446,6.214707835253818e+28
81.20000000000027,6.967054513209743,8.473555654500743,6.18168142721911e+28
82.20000000000027,6.964281589659379,8.460586592892273,6.149231573851457e+28
83.20000000000027,6.961535367999461,8.447782038289564,6.1173413776090965e+28
84.20000000000027,6.9588152823824405,8.435137927157681,6.085994631652551e+28
85.20000000000027,6.956120785490143,8.422650343456622,6.055175783809523e+28
86.20000000000027,6.953451347717518,8.410315511622972,6.024869902817364e+28
87.20000000000027,6.950806456401377,8.398129789962793,5.995062646674644e+28
88.20000000000027,6.948185615091126,8.386089664427228,5.965740232947521e+28
89.20000000000027,6.945588342858783,8.374191742744575,5.9368894108895785e+28
90.20000000000027,6.943014173645732,8.3624327488847,5.908497435245399e+28
91.20000000000027,6.940462655643887,8.350809517833428,5.880552041618827e+28
92.20000000000027,6.93793335070908,8.339318990656446,5.853041423296425e+28
93.20000000000027,6.935425833804685,8.32795820983366,5.825954209425436e+28
94.20000000000027,6.932939692473598,8.316724314846484,5.799279444453492e+28
95.20000000000027,6.930474526336845,8.305614538001812,5.773006568744604e+28
96.20000000000027,6.9280299466172215,8.294626200477621,5.747125400292574e+28
97.20000000000027,6.925605575686453,8.283756708576302,5.721626117459001e+28
98.20000000000027,6.923201046634494,8.273003550172753,5.696499242668602e+28
99.20000000000027,6.920816002859668,8.26236429134525,5.671735626999634e+28
100.20000000000027,6.918450097678443,8.25183657317795,5.647326435611769e+28
101.20000000000027,6.9161029939537055,8.241418108724671,5.623263133958108e+28
102.20000000000027,6.913774363740502,8.231106680124288,5.599537474731815e+28
103.20000000000027,6.911463887948242,8.220900135858763,5.576141485501514e+28
104.20000000000027,6.909171256018467,8.210796388145495,5.553067456992787e+28
105.20000000000027,6.906896165617304,8.200793410456114,5.530307931976212e+28
106.20000000000027,6.90463832234183,8.19088923515452,5.5078556947250845e+28
107.20000000000027,6.9023974394395635,8.181081951247311,5.485703761008581e+28
108.20000000000027,6.900173237540399,8.171369702240302,5.463845368588463e+28
109.20000000000027,6.897965444400318,8.161750684095173,5.442273968189561e+28
110.20000000000027,6.895773794656256,8.152223143280693,5.420983214916364e+28
