Time,Mass,Radius,Lx
23.0,32.763096042130094,6.41,1.1600000000000076e+30
33.0,32.72464562587128,6.405237766970243,7.901727872899563e+29
43.0,32.696334033092846,6.40172995339965,5.963104427115676e+29
53.0,32.67389105127995,6.398948469900421,4.774218196754073e+29
63.0,32.65528353389988,6.3966418049982074,3.9725913973121104e+29
73.0,32.63938194050779,6.394670195265114,3.396496725387096e+29
83.0,32.625493022976194,6.392947845058428,2.9630411328050337e+29
93.0,32.61316040182059,6.391418263926811,2.6254124378750456e+29
103.0,32.6020675273723,6.390042263781401,2.355203790943222e+29
113.0,32.59198576810702,6.388791536920952,2.1341921663777002e+29
123.0,32.58274456634801,6.387644963513831,1.9501579742261693e+29
133.0,32.574213278468186,6.38658636449036,1.7946054405596703e+29
143.0,32.5662896049387,6.385603069713871,1.661447220587675e+29
153.0,32.55889193295887,6.38468497025652,1.546209121825506e+29
163.0,32.55195410353938,6.38382387068193,1.4455300370915251e+29
173.0,32.54542173619625,6.383013034086736,1.3568367979151092e+29
183.0,32.53924958583104,6.382246854888619,1.2781265599605893e+29
193.0,32.53339960223782,6.381520618580221,1.2078174358032994e+29
203.0,32.527839479288126,6.380830322096023,1.1446436681963821e+29
213.0,32.52254155255228,6.380172537312086,1.0875805970517537e+29
223.0,32.51748194948478,6.379544305812584,1.0357899974380166e+29
233.0,32.512639925740146,6.378943056700245,9.88579622037107e+28
243.0,32.5079973407248,6.378366541645913,9.453728248793149e+28
253.0,32.50353823872441,6.3778127830103415,9.056854555271984e+28
263.0,32.49924851107594,6.377280032001404,8.691080735570872e+28
273.0,32.4951156212582,6.376766734622597,8.352921084806645e+28
283.0,32.49112837933629,6.3762715037334114,8.039389815182565e+28
293.0,32.48727675549012,6.375793095950023,7.747914760119458e+28
303.0,32.4835517247678,6.375330392413132,7.476268328571407e+28
313.0,32.47994513698934,6.374882382670785,7.222511820816022e+28
323.0,32.47644960706217,6.374448151089392,6.984950186793741e+28
333.0,32.47305842198006,6.374026865331211,6.762095014169019e+28
343.0,32.46976546154863,6.373617766532151,6.552634052986759e+28
353.0,32.466565130474535,6.373220160887216,6.355405970188511e+28
363.0,32.463452299916966,6.3728334124081485,6.16937931725772e+28
373.0,32.46042225696144,6.372456936662479,5.993634913863496e+28
383.0,32.45747066076045,6.372090195338539,5.827351018050491e+28
393.0,32.45459350431202,6.371732691508945,5.669790782563098e+28
403.0,32.45178708102771,6.371383965487471,5.520291596935447e+28
413.0,32.44904795538709,6.371043591192243,5.378255993084629e+28
423.0,32.446372937093294,6.370711172942713,5.243143853528243e+28
433.0,32.44375905823975,6.370386342629744,5.114465709892045e+28
443.0,32.44120355307643,6.3700687572078065,4.991776957993767e+28
453.0,32.4387038400282,6.369758096466229,4.87467284668804e+28
463.0,32.43625750567084,6.3694540610430534,4.76278412251193e+28
473.0,32.43386229041425,6.36915637065043,4.655773232265931e+28
483.0,32.43151607567902,6.368864762485084,4.553331001992328e+28
493.0,32.42921687238318,6.368578989801155,4.455173724140257e+28
503.0,32.42696281058154,6.368298820625863,4.361040595634312e+28
513.0,32.424752130121895,6.3680240366012075,4.270691458561779e+28
523.0,32.42258317220044,6.367754431937114,4.183904802633298e+28
533.0,32.42045437171458,6.3674898124634,4.100475994747211e+28
543.0,32.4183642503243,6.367229994769567,4.020215706133185e+28
553.0,32.416311410144786,6.366974805422836,3.942948511853191e+28
563.0,32.41429452800243,6.366724080256004,3.868511641048153e+28
573.0,32.41231235019505,6.366477663717812,3.79675385935819e+28
583.0,32.41036368770394,6.366235408279303,3.7275344675115724e+28
593.0,32.4084474118118,6.365997173890508,3.660722402252669e+28
603.0,32.406562450085964,6.365762827482401,3.596195427627472e+28
613.0,32.40470778269093,6.3655322425096745,3.5338394062205213e+28
623.0,32.40288243899826,6.365305298530395,3.473547641283201e+28
633.0,32.40108549446561,6.365081880819,3.415220281846899e+28
643.0,32.399316067759514,6.364861880009524,3.3587637839055256e+28
653.0,32.397573318099504,6.364645191766267,3.304090421605416e+28
663.0,32.39585644280341,6.364431716479395,3.2511178431175388e+28
673.0,32.39416467501579,6.364221358983249,3.19976866650464e+28
683.0,32.39249728160335,6.364014028295359,3.149970111449082e+28
693.0,32.39085356120281,6.363809637374354,3.101653663187952e+28
703.0,32.38923284240818,6.363608102895159,3.054754765420875e+28
713.0,32.38763448208558,6.363409345040008,3.009212539321597e+28
723.0,32.386057863805114,6.363213287303962,2.9649695261042306e+28
733.0,32.38450239637999,6.363019856313736,2.921971450875357e+28
743.0,32.38296751250439,6.362828981658756,2.880167005749274e+28
753.0,32.381452667482016,6.362640595733477,2.8395076504202106e+28
763.0,32.37995733803823,6.362454633590049,2.799947428576113e+28
773.0,32.378481021209346,6.362271032800558,2.7614427987070465e+28
783.0,32.37702323330297,6.362089733328079,2.7239524780102065e+28
793.0,32.37558350892414,6.3619106774058825,2.6874372982254675e+28
803.0,32.37416140006226,6.361733809424186,2.651860072352439e+28
813.0,32.37275647523438,6.3615590758238865,2.617185471304001e+28
823.0,32.37136831868059,6.361386424996755,2.5833799096438486e+28
833.0,32.36999652960791,6.361215807191658,2.5504114396380636e+28
843.0,32.36864072147912,6.36104717442633,2.5182496529243468e+28
853.0,32.367300521343346,6.360880480404349,2.486865589168355e+28
863.0,32.36597556920557,6.3607156804369165,2.4562316511354746e+28
873.0,32.36466551743228,6.3605527313691335,2.4263215256591512e+28
883.0,32.363370030190914,6.360391591510469,2.3971101100342586e+28
893.0,32.3620887829207,6.360232220569105,2.3685734434065497e+28
903.0,32.360821461832884,6.360074579589952,2.3406886427675286e+28
913.0,32.35956776343838,6.35991863089604,2.313433843198565e+28
923.0,32.358327394101046,6.359764338033107,2.2867881420391815e+28
933.0,32.35710006961498,6.359611665717156,2.260731546682534e+28
943.0,32.3558855148042,6.359460579784794,2.235244925726483e+28
953.0,32.35468346314345,6.359311047146184,2.2103099632316272e+28
963.0,32.35349365639866,6.359163035740442,2.1859091158584867e+28
973.0,32.35231584428593,6.359016514493333,2.162025572674899e+28
983.0,32.351149784147914,6.358871453277113,2.1386432174418066e+28
993.0,32.34999524064647,6.358727822872404,2.115746593201217e+28
1003.0,32.34885225392387,6.358585628329401,2.090081135351165e+28
1013.0,32.34772431671265,6.358445304229646,2.057564507998924e+28
1023.0,32.34661239372393,6.358306970664745,2.0258657787155107e+28
1033.0,32.345516103624895,6.358170580267797,1.9949566780668547e+28
1043.0,32.34443507775314,6.358036087244862,1.9648101746444167e+28
1053.0,32.34336895957874,6.357903447308208,1.9354004096365916e+28
1063.0,32.34231740419405,6.357772617613006,1.90670263543932e+28
1073.0,32.34128007782951,6.357643556697249,1.8786931580213176e+28
1083.0,32.34025665739396,6.357516224424698,1.851349282781836e+28
1093.0,32.339246830037936,6.357390581930704,1.824649263659377e+28
1103.0,32.33825029273867,6.357266591570695,1.7985722552685233e+28
1113.0,32.33726675190549,6.35714421687121,1.7730982678592005e+28
1123.0,32.33629592300445,6.3570234224833175,1.748208124908331e+28
1133.0,32.33533753020111,6.356904174138277,1.723883423168225e+28
1143.0,32.33439130602039,6.3567864386053285,1.700106495009184e+28
1153.0,32.33345699102262,6.356670183651483,1.6768603729058693e+28
1163.0,32.33253433349476,6.3565553780032,1.6541287559280541e+28
1173.0,32.33162308915612,6.356441991309861,1.6318959781065499e+28
1183.0,32.330723020877585,6.356329994108928,1.6101469785544454e+28
1193.0,32.32983389841384,6.356219357792694,1.588867273232399e+28
1203.0,32.32895549814767,6.356110054576554,1.5680429282546348e+28
1213.0,32.328087602845855,6.356002057468698,1.5476605346395964e+28
1223.0,32.32723000142597,6.355895340241176,1.5277071844159233e+28
1233.0,32.3263824887335,6.355789877402217,1.5081704480006252e+28
1243.0,32.325544865328865,6.355685644169801,1.4890383527720523e+28
1253.0,32.324716937283604,6.3555826164463545,1.4702993627655415e+28
1263.0,32.32389851598552,6.355480770794562,1.4519423594245204e+28
1273.0,32.3230894179521,6.355380084414206,1.433956623344352e+28
1283.0,32.32228946465195,6.355280535119995,1.41633181695041e+28
1293.0,32.32149848233378,6.355182101320337,1.3990579680557288e+28
1303.0,32.32071630186252,6.355084761996996,1.3821254542471741e+28
1313.0,32.31994275856233,6.354988496685594,1.3655249880524102e+28
1323.0,32.31917769206605,6.354893285456925,1.3492476028430196e+28
1333.0,32.31842094617087,6.354799108899039,1.333284639432007e+28
1343.0,32.31767236869983,6.3547059481000385,1.3176277333265775e+28
1353.0,32.316931811368974,6.354613784631593,1.3022688025995552e+28
1363.0,32.31619912965977,6.354522600533093,1.2872000363451093e+28
1373.0,32.31547418269668,6.35443237829645,1.272413883686598e+28
1383.0,32.31475683312952,6.354343100851495,1.257903043306326e+28
1393.0,32.31404694702047,6.354254751551941,1.2436604534688825e+28
1403.0,32.31334439373548,6.354167314161902,1.2296792825114366e+28
1413.0,32.31264904583984,6.354080772842935,1.2159529197759997e+28
1423.0,32.31196077899786,6.353995112141566,1.2024749669601522e+28
1433.0,32.311279471876254,6.3539103169773075,1.1892392298641452e+28
1443.0,32.310605006051304,6.353826372631124,1.1762397105136008e+28
1453.0,32.30993726591942,6.353743264734328,1.1634705996382474e+28
1463.0,32.30927613861111,6.353660979257894,1.1509262694882854e+28
1473.0,32.3086215139081,6.35357950250217,1.1386012669710393e+28
1483.0,32.307973284163545,6.353498821086967,1.1264903070915544e+28
1493.0,32.30733134422513,6.353418921942013,1.114588266681745e+28
1503.0,32.30669559136101,6.353339792297745,1.102890178403556e+28
1513.0,32.30606592518837,6.3532614196764525,1.0913912250124469e+28
1523.0,32.30544224760459,6.353183791883719,1.0800867338682597e+28
1533.0,32.30482446272086,6.3531068970001785,1.0689721716812628e+28
1543.0,32.30421247679814,6.353030723373566,1.058043139481841e+28
1553.0,32.30360619818538,6.352955259611039,1.0472953678029298e+28
1563.0,32.303005537259885,6.352880494571779,1.036724712064904e+28
1573.0,32.30241040636977,6.352806417359835,1.0263271481531739e+28
1583.0,32.30182071977841,6.352733017317233,1.0160987681792809e+28
1593.0,32.30123639361075,6.352660284017302,1.0060357764167797e+28
1603.0,32.30065734580152,6.352588207258247,9.961344854036515e+27
1613.0,32.300083496045126,6.352516777056919,9.863913122034388e+27
1623.0,32.299514765747304,6.352445983642816,9.768027748177005e+27
1633.0,32.298951077978316,6.352375817452265,9.67365488742779e+27
1643.0,32.298392357427765,6.352306269122816,9.580761636642259e+27
1653.0,32.29783853036088,6.352237329487802,9.489316002825918e+27
1663.0,32.29728952457622,6.352168989571097,9.399286872645987e+27
1673.0,32.29674526936482,6.352101240582032,9.310643983140233e+27
1683.0,32.29620569547057,6.35203407391048,9.223357893569133e+27
1693.0,32.29567073505196,6.3519674811221,9.137399958360179e+27
1703.0,32.29514032164499,6.35190145395373,9.05274230109589e+27
1713.0,32.29461439012734,6.351835984308942,8.96935778949935e+27
1723.0,32.29409287668358,6.351771064253709,8.887220011373481e+27
1733.0,32.29357571877153,6.351706686012239,8.806303251452434e+27
1743.0,32.29306285508969,6.351642841962921,8.726582469125438e+27
1753.0,32.29255422554565,6.351579524634402,8.648033276995488e+27
1763.0,32.29204977122551,6.351516726701788,8.570631920237025e+27
1773.0,32.2915494343642,6.3514544409829625,8.49435525671848e+27
1783.0,32.291053158316764,6.351392660435009,8.419180737857249e+27
1793.0,32.290560887530475,6.351331378150757,8.345086390176169e+27
1803.0,32.290072567517804,6.3512705873554145,8.272050797532034e+27
1813.0,32.28958814483023,6.3512102814033256,8.200053083988135e+27
1823.0,32.289107567032815,6.351150453774797,8.129072897304038e+27
1833.0,32.28863078267951,6.351091098073048,8.059090393017164e+27
1843.0,32.28815774128926,6.351032208021225,7.990086219091827e+27
1853.0,32.287688393322746,6.350973777459523,7.922041501112572e+27
1863.0,32.287222690159844,6.3509158003423805,7.854937827999701e+27
1873.0,32.286760584077754,6.350858270735764,7.788757238225886e+27
1883.0,32.28630202822971,6.35080118281452,7.723482206513706e+27
1893.0,32.28584697662438,6.35074453085982,7.659095630994922e+27
1903.0,32.285395384105776,6.350688309256662,7.595580820813075e+27
1913.0,32.284947206333804,6.350632512491454,7.532921484151906e+27
1923.0,32.284502399765344,6.350577135149661,7.471101716672822e+27
1933.0,32.284060921635835,6.350522171913522,7.410105990345382e+27
1943.0,32.283622729941435,6.350467617559832,7.349919142655515e+27
1953.0,32.28318778342164,6.350413466957776,7.290526366176811e+27
1963.0,32.28275604154238,6.35035971506684,7.231913198490886e+27
1973.0,32.282327464479614,6.3503063569347615,7.174065512443448e+27
1983.0,32.28190201310336,6.3502533876955525,7.116969506723222e+27
1993.0,32.28147964896218,6.350200802567568,7.060611696751503e+27
2003.0,32.28106033426804,6.350148596851628,7.004978905870561e+27
2013.0,32.280644031881636,6.35009676592919,6.9500582568197e+27
2023.0,32.280230705298095,6.350045305260576,6.895837163488174e+27
2033.0,32.27982031863305,6.34999421038324,6.842303322934677e+27
2043.0,32.279412836609104,6.349943476910088,6.78944470766351e+27
2053.0,32.279008224542636,6.349893100527833,6.737249558147974e+27
2063.0,32.27860644833098,6.349843076995412,6.685706375591914e+27
2073.0,32.27820747443993,6.349793402142421,6.634803914920715e+27
2083.0,32.27781126989155,6.34974407186761,6.584531177993409e+27
2093.0,32.27741780225235,6.349695082137412,6.534877407027916e+27
2103.0,32.27702703962173,6.3496464289845,6.485832078231711e+27
2113.0,32.27663895062073,6.3495981085064,6.437384895630586e+27
2123.0,32.27625350438109,6.349550116864118,6.389525785088442e+27
2133.0,32.27587067053455,6.349502450280828,6.342244888511314e+27
2143.0,32.27549041920249,6.3494551050405645,6.295532558229129e+27
2153.0,32.275112720985746,6.349408077486972,6.24937935154897e+27
2163.0,32.274737546954746,6.349361364022074,6.203776025473794e+27
2173.0,32.274364868639886,6.349314961105076,6.158713531580889e+27
2183.0,32.27399465802211,6.349268865251197,6.114183011054509e+27
2193.0,32.27362688752379,6.349223073030532,6.070175789867359e+27
2203.0,32.27326152999974,6.349177581066943,6.026683374105825e+27
2213.0,32.27289855872856,6.349132386036974,5.983697445434027e+27
2223.0,32.2725379474041,6.349087484668795,5.941209856691981e+27
2233.0,32.27217967012718,6.349042873741176,5.899212627623287e+27
2243.0,32.2718237013975,6.348998550082475,5.857697940728021e+27
2253.0,32.271470016105766,6.348954510569664,5.816658137236578e+27
2263.0,32.27111858952596,6.348910752127364,5.776085713200457e+27
2273.0,32.27076939730784,6.34886727172692,5.735973315696062e+27
2283.0,32.27042241546959,6.348824066385482,5.696313739137784e+27
2293.0,32.27007762039068,6.348781133165115,5.65709992169678e+27
2303.0,32.269734988804856,6.348738469171936,5.618324941821917e+27
2313.0,32.269394497793314,6.348696071555259,5.579982014859597e+27
2323.0,32.26905612477803,6.348653937506769,5.5420644897692e+27
2333.0,32.26871984751527,6.348612064259712,5.504565845931068e+27
2343.0,32.2683856440892,6.348570449088108,5.467479690044014e+27
2353.0,32.2680534929057,6.3485290893059725,5.430799753109507e+27
2363.0,32.26772337268628,6.348487982266569,5.394519887499714e+27
2373.0,32.26739526246215,6.348447125361665,5.358634064106775e+27
2383.0,32.267069141568456,6.3484065160208205,5.323136369570685e+27
2393.0,32.266744989638575,6.348366151710678,5.288021003583316e+27
2403.0,32.26642278659862,6.348326029934276,5.253282276266181e+27
2413.0,32.266102512662016,6.348286148230378,5.218914605619628e+27
2423.0,32.265784148324215,6.348246504172818,5.184912515041214e+27
2433.0,32.26546767435754,6.348207095369851,5.151270630911126e+27
2443.0,32.26515307180612,6.348167919463536,5.117983680242569e+27
2453.0,32.26484032198096,6.348128974129111,5.085046488395105e+27
2463.0,32.264529406455125,6.3480902570744,5.052453976849009e+27
2473.0,32.26422030705898,6.348051766039222,5.020201161038791e+27
2483.0,32.26391300587561,6.348013498794823,4.98828314824405e+27
2493.0,32.263607485236285,6.347975453143306,4.956695135535962e+27
2503.0,32.26330372771604,6.347937626917086,4.925432407777659e+27
2513.0,32.26300171612937,6.347900017978357,4.8944903356769395e+27
2523.0,32.26270143352596,6.347862624218555,4.863864373889693e+27
2533.0,32.26240286318661,6.347825443557857,4.833550059172542e+27
2543.0,32.26210598861911,6.347788473944669,4.803543008583241e+27
2553.0,32.261810793554346,6.347751713355131,4.773838917727393e+27
2563.0,32.26151726194237,6.347715159792647,4.7444335590501514e+27
2573.0,32.26122537794865,6.347678811287398,4.7153227801715404e+27
2583.0,32.26093512595031,6.347642665895894,4.686502502264155e+27
2593.0,32.26064649053252,6.347606721700511,4.657968718471975e+27
2603.0,32.260359456484935,6.347570976809055,4.629717492369114e+27
2613.0,32.26007400879818,6.347535429354324,4.601744956457332e+27
2623.0,32.25979013266047,6.347500077493687,4.574047310701211e+27
2633.0,32.25950781345426,6.347464919408669,4.546620821099889e+27
2643.0,32.259227036752954,6.347429953304538,4.51946181829432e+27
2653.0,32.25894778831769,6.347395177409912,4.4925666962090457e+27
2663.0,32.258670054094246,6.347360589976367,4.4659319107274855e+27
2673.0,32.25839382020991,6.347326189278056,4.439553978399809e+27
2683.0,32.258119072970494,6.347291973611329,4.4134294751824675e+27
2693.0,32.257845798857375,6.347257941294369,4.3875550352084826e+27
2703.0,32.2575739845246,6.347224090666835,4.361927349587651e+27
2713.0,32.257303616796044,6.3471904200895075,4.3365431652358174e+27
2723.0,32.25703468266265,6.3471569279439395,4.3113992837324027e+27
2733.0,32.256767169279684,6.3471236126321235,4.28649256020542e+27
2743.0,32.256501063964066,6.347090472576154,4.2618199022432046e+27
2753.0,32.256236354191785,6.347057506217908,4.2373782688321333e+27
2763.0,32.25597302759529,6.347024712018721,4.213164669319616e+27
2773.0,32.255711071961,6.346992088459079,4.1891761624016685e+27
2783.0,32.25545047522686,6.34695963403831,4.165409855134403e+27
2793.0,32.25519122547987,6.34692734727428,4.1418629019687787e+27
2803.0,32.25493331095377,6.346895226703107,4.118532503807997e+27
2813.0,32.25467672002667,6.346863270878862,4.095415907086919e+27
2823.0,32.25442144121883,6.346831478373294,4.072510402872924e+27
2833.0,32.254167463190356,6.346799847775547,4.0498133259876243e+27
2843.0,32.25391477473905,6.346768377691891,4.0273220541488994e+27
2853.0,32.253663364798264,6.346737066745449,4.0050340071326904e+27
2863.0,32.25341322243477,6.346705913575946,3.982946645954044e+27
2873.0,32.2531643368467,6.3466749168394365,3.961057472066896e+27
2883.0,32.25291669736151,6.346644075208065,3.939364026582101e+27
2893.0,32.252670293434015,6.346613387369812,3.917863889503228e+27
2903.0,32.25242511464439,6.346582852028254,3.896554678979668e+27
2913.0,32.25218115069629,6.346552467902321,3.8754340505765916e+27
2923.0,32.25193839141495,6.346522233726067,3.8544996965613276e+27
2933.0,32.251696826745366,6.346492148248441,3.8337493452057357e+27
2943.0,32.251456446750424,6.346462210233053,3.8131807601041674e+27
2953.0,32.25121724160918,6.346432418457964,3.792791739506602e+27
2963.0,32.250979201615095,6.346402771715465,3.7725801156665846e+27
2973.0,32.25074231717431,6.346373268811858,3.7525437542035844e+27
2983.0,32.250506578803964,6.346343908567257,3.732680553479397e+27
2993.0,32.250271977130566,6.346314689815372,3.7129884439882546e+27
3003.0,32.25003850288834,6.346285611403317,3.6934653877602815e+27
3013.0,32.24980614691765,6.346256672191404,3.674109377777966e+27
3023.0,32.249574900163445,6.346227871052954,3.654918437405324e+27
3033.0,32.24934475367371,6.346199206874106,3.635890619829437e+27
3043.0,32.249115698597954,6.346170678553624,3.617024007514053e+27
3053.0,32.248887726185735,6.346142285002717,3.5983167116649533e+27
3063.0,32.24866082778521,6.34611402514486,3.5797668717067947e+27
3073.0,32.2484349948417,6.34608589791561,3.5613726547711475e+27
3083.0,32.24821021889629,6.346057902262437,3.5431322551954445e+27
