Time,Mass,Radius,Lx
23.0,5.4008044830316075,5.59,
24.000200964630224,5.33643230058847,5.206329678098442,
25.00040192926045,5.292879078545514,4.921936892936134,
26.000602893890672,5.261863378405189,4.70418688779294,
27.000803858520896,5.23889161121988,4.533008261376466,
28.00100482315112,5.221344813068134,4.3954919840084825,
29.001205787781345,5.207606000953218,4.283002378352979,
30.00140675241157,5.196628727017629,4.189564125882904,
31.001607717041793,5.187708889589151,4.1109217384072485,
32.00180868167202,5.1803570245877095,4.043968739236479,
33.00200964630224,5.17422333108255,3.986388604760787,
34.002210610932465,5.169051821470268,3.936421644068997,
35.00241157556269,5.164651278297935,3.892709354107899,
36.002612540192914,5.160876285542472,3.8541879008668367,
37.00281350482314,5.157614503011409,3.820013603859142,
38.00301446945336,5.154777924547843,3.7895097794122607,
39.003215434083586,5.152296745207183,3.76212815123163,
40.00341639871381,5.150114977075585,3.7374203920884432,
41.003617363344034,5.1481872617158775,3.715016836763824,
42.00381832797426,5.146476516982613,3.6946103529225094,
43.00401929260448,5.144952093170624,3.6759432726639036,
44.00422025723471,5.14353015808583,3.6582992878264027,
45.00442122186493,5.142144142884619,3.641103859484485,
46.004622186495155,5.140792404653531,3.624335995149312,
47.00482315112538,5.139473408742368,3.607976112820038,
48.0050241157556,5.138185719524153,3.592005918607551,
49.00522508038583,5.136927992116654,3.576408297274167,
50.00542604501605,5.135698964948076,3.5611672140931705,
51.005627009646275,5.134497453065939,3.5462676266570092,
52.0058279742765,5.133322342101915,3.531695405452358,
53.006028938906724,5.132172582817122,3.517437262180511,
54.00622990353695,5.131047186162296,3.5034806849374123,
55.00643086816717,5.129945218795737,3.4898138794832763,
56.006631832797396,5.128865799009166,3.4764257159304606,
57.00683279742762,5.1278080930178405,3.463305680262919,
58.007033762057844,5.126771311576642,3.4504438301730485,
59.00723472668807,5.12575470688842,3.4378307547643807,
60.00743569131829,5.124757569774914,3.4254575377225382,
61.00763665594852,5.123779227083982,3.4133157236037004,
62.00783762057874,5.122819039309919,3.4013972869303744,
63.008038585208965,5.121876398406226,3.389694603819551,
64.00823954983919,5.120950725772508,3.3782004258993106,
65.00844051446941,5.120041470399162,3.366907856296598,
66.00864147909964,5.119148107155282,3.355810327502816,
67.00884244372986,5.118270135206757,3.3449015809442546,
68.00904340836009,5.117407076552881,3.334175648102912,
69.00924437299031,5.1165584746710175,3.3236268330490963,
70.00944533762053,5.115723893259893,3.313249696261513,
71.00964630225076,5.114902915073071,3.3030390396230462,
72.00984726688098,5.114095140834964,3.2929898924916063,
73.0100482315112,5.1133001882324844,3.283097498755258,
74.01024919614143,5.112517690976123,3.273357304789662,
75.01045016077165,5.111747297924794,3.2637649482436863,
76.01065112540188,5.110988672269353,3.254316247586084,
77.0108520900321,5.110241490770118,3.2450071923522303,
78.01105305466233,5.109505443044207,3.235833934035761,
79.01125401929255,5.108780230898818,3.2267927775746967,
80.01145498392277,5.108065567706972,3.2178801733863454,
81.011655948553,5.107361177822519,3.209092709909231,
82.01185691318322,5.106666796031486,3.2004271066139487,
83.01205787781345,5.105982167037095,3.1918802074481407,
84.01225884244367,5.105307044976029,3.1834489746837993,
85.0124598070739,5.104641192963675,3.1751304831377145,
86.01266077170412,5.103984382666318,3.166921914738328,
87.01286173633434,5.103336393898381,3.1588205534145404,
88.01306270096457,5.102697014242986,3.1508237802838437,
89.01326366559479,5.102066038694236,3.1429290691191785,
90.01346463022502,5.101443269319741,3.1351339820753297,
91.01366559485524,5.100828514942051,3.1274361656574206,
92.01386655948546,5.100221590837719,3.1198333469152164,
93.01406752411569,5.09962231845286,3.1123233298483077,
94.01426848874591,5.099030525134124,3.1049039920083876,
95.01446945337614,5.098446043874096,3.0975732812858077,
96.01467041800636,5.097868713070217,3.090329212868652,
97.01487138263658,5.09729837629636,3.0831698663633356,
98.01507234726681,5.096734882086289,3.076093383066592,
99.01527331189703,5.0961780837282635,3.0690979633794404,
100.01547427652726,5.095627839070105,3.062181864354395,
101.01567524115748,5.095084010334105,3.055343397367805,
102.0158762057877,5.094546463941174,3.0485809259097474,
103.01607717041793,5.094015070343696,3.0418928634844873,
104.01627813504815,5.093489703866572,3.035277671614914,
105.01647909967838,5.092970242555976,3.028733857944903,
106.0166800643086,5.092456568035389,3.0222599744339105,
107.01688102893883,5.0919485653684795,3.015854615638453,
108.01708199356905,5.09144612292847,3.0095164170756075,
109.01728295819927,5.0909491322735985,3.003244053663781,
110.0174839228295,5.090457488028354,2.9970362382365563,
111.01768488745972,5.0899710877701745,2.9908917201254805,
112.01788585208995,5.089489831921284,2.984809283807998,
113.01808681672017,5.089013623645428,2.9787877476170728,
114.0182877813504,5.088542368749211,2.9728259625090585,
115.01848874598062,5.088075975587815,2.966922810886773,
116.01868971061084,5.087614354974861,2.961077205474846,
117.01889067524107,5.087157420096197,2.9552880882445356,
118.01909163987129,5.086705086427406,2.949554429385481,
119.01929260450152,5.086257271654856,2.943875226321992,
120.01949356913174,5.085813895600098,2.9382495027714994,
121.01969453376196,5.085374880147456,2.932676307843143,
122.01989549839219,5.084940149174633,2.927154715174334,
123.02009646302241,5.084509628486204,2.9216838221035455,
124.02029742765264,5.084083245749837,2.9162627488773962,
125.02049839228286,5.0836609304351175,2.910890637890427,
126.02069935691308,5.083242613754851,2.905566652955958,
127.02090032154331,5.082828228608716,2.9002899786064646,
128.02110128617355,5.082417709529172,2.8950598194221655,
129.02130225080379,5.082010992629493,2.889875399386344,
130.02150321543402,5.081608015553851,2.8847359612662564,
131.02170418006426,5.081208717429336,2.879640766018343,
132.0219051446945,5.080813038819831,2.874589092216656,
133.02210610932474,5.080420921681657,2.869580235503399,
134.02230707395498,5.080032309320908,2.8646135080606188,
135.02250803858522,5.0796471463523885,2.85968823810199,
136.02270900321545,5.079265378660105,2.8548037693838846,
137.0229099678457,5.078886953359218,2.849959460734791,
138.02311093247593,5.078511818759403,2.8451546856023224,
139.02331189710617,5.078139924329558,2.840388831616953,
140.0235128617364,5.077771220663793,2.8356613001718403,
141.02371382636665,5.077405659448658,2.830971506017997,
142.02391479099688,5.077043193431535,2.826318876874084,
143.02411575562712,5.076683776390172,2.821702853050307,
144.02431672025736,5.076327363103284,2.817122887085752,
145.0245176848876,5.0759739093222,2.81257844339856,
146.02471864951784,5.0756233717434895,2.808068997948495,
147.02491961414808,5.075275707982548,2.803594037911277,
148.0251205787783,5.074930876548086,2.7991530613642666,
149.02532154340855,5.074588836817499,2.794745576983021,
150.0255225080388,5.074249549013069,2.7903711037482317,
151.02572347266903,5.073912974178972,2.7860291706626965,
152.02592443729927,5.073579074159061,2.7817193164778344,
153.0261254019295,5.073247811575381,2.777441089429421,
154.02632636655974,5.0729191498074115,2.7731940469821845,
155.02652733118998,5.072593052971972,2.7689777555828243,
156.02672829582022,5.072269485903803,2.7647917904212345,
157.02692926045046,5.0719484141367674,2.760635735199526,
158.0271302250807,5.071629803885665,2.7565091819085943,
159.02733118971094,5.071313622028628,2.7524117306119056,
160.02753215434117,5.070999836090074,2.7483429892362348,
161.0277331189714,5.070688414224212,2.744302573369122,
162.02793408360165,5.070379325199052,2.7402901060627247,
163.0281350482319,5.070072538380927,2.7363052176439018,
164.02833601286213,5.0697680237194955,2.732347545530248,
165.02853697749237,5.069465751733199,2.7284167340518355,
166.0287379421226,5.0691656934951785,2.724512434278524,
167.02893890675284,5.068867820619615,2.7206343038526075,
168.02913987138308,5.068572105248485,2.7167820068265156,
169.02934083601332,5.068278520038719,2.712955213505527,
170.02954180064356,5.067987038149743,2.7091536002952252,
171.0297427652738,5.067697633231393,2.7053768495535193,
172.02994372990403,5.06741027941219,2.7016246494471483,
173.03014469453427,5.067124951287957,2.6978966938124085,
174.0303456591645,5.066841623910772,2.6941926820200015,
175.03054662379475,5.066560272778248,2.6905123188438926,
176.030747588425,5.066280873823114,2.686855314333972,
177.03094855305523,5.066003403403107,2.683221383692432,
178.03114951768546,5.065727838291144,2.6796102471537084,
179.0313504823157,5.065454155665787,2.6760216298679143,
180.03155144694594,5.065182333101964,2.672455261787535,
181.03175241157618,5.064912348561963,2.6689108775574084,
182.03195337620642,5.064644180386674,2.665388216407794,
183.03215434083666,5.064377807287075,2.6618870220504385,
184.0323553054669,5.064113208335956,2.6584070425775703,
185.03255627009713,5.063850362959873,2.6549480303636894,
186.03275723472737,5.063589250931317,2.6515097419700764,
187.0329581993576,5.063329852361103,2.648091938051935,
188.03315916398785,5.063072147690965,2.644694383268088,
189.03336012861809,5.062816117686347,2.6413168461930807,
190.03356109324832,5.062561743429391,2.637959099231748,
191.03376205787856,5.0623090063121134,2.6346209185360117,
192.0339630225088,5.062057888029761,2.631302083923931,
193.03416398713904,5.061808370574344,2.6280023788009452,
194.03436495176928,5.061560436228337,2.624721590083155,
195.03456591639952,5.061314067558549,2.621459508122644,
196.03476688102975,5.06106924741015,2.618215926634782,
197.03496784566,5.060825958900853,2.614990642627418,
198.03516881029023,5.060584185415249,2.6117834563318896,
199.03536977492047,5.060343910599281,2.608594171135846,
200.0355707395507,5.060105118354867,2.6054225935177904,
201.03577170418095,5.059867792834656,2.602268532983301,
202.03597266881118,5.0596319184369145,2.5991318020028693,
203.03617363344142,5.059397479800544,2.596012215951311,
204.03637459807166,5.059164461800226,2.5929095930487334,
205.0365755627019,5.058932849541681,2.589823754302939,
206.03677652733214,5.058702628357055,2.586754523453322,
207.03697749196238,5.058473783800408,2.583701726916108,
208.0371784565926,5.058246301643324,2.5806651937309786,
209.03737942122285,5.058020167870623,2.577644755509013,
210.0375803858531,5.057795368676177,2.5746402463818825,
211.03778135048333,5.0575718904588305,2.57165150295231,
212.03798231511357,5.057349719818416,2.568678364245713,
213.0381832797438,5.057128843551867,2.5657206716630165,
214.03838424437404,5.056909248649425,2.562778268934615,
215.03858520900428,5.056690922290933,2.559851002075435,
216.03878617363452,5.056473851842222,2.5569387193410495,
217.03898713826476,5.056258024851576,2.5540412711848397,
218.039188102895,5.056043429046285,2.5511585102161902,
219.03938906752524,5.055830052329276,2.548290291159622,
220.03959003215547,5.055617882775828,2.5454364708149493,
221.0397909967857,5.05540690863035,2.542596908018275,
222.03999196141595,5.055197118303249,2.5397714636039903,
223.0401929260462,5.054988500367855,2.536960000367549,
224.04039389067643,5.054781043557433,2.534162383029198,
225.04059485530667,5.054574736762244,2.531378478198441,
226.0407958199369,5.054369569026686,2.5286081543393975,
227.04099678456714,5.054165529546495,2.5258512817368772,
228.04119774919738,5.053962607666009,2.523107732463264,
229.04139871382762,5.053760792875494,2.5203773803461287,
230.04159967845786,5.053560074808525,2.5176601009365758,
231.0418006430881,5.0533604432394315,2.5149557714782618,
232.04200160771833,5.053161888080798,2.512264270877166,
233.04220257234857,5.052964399381013,2.5095854796719657,
234.0424035369788,5.05276796732188,2.5069192800050732,
235.04260450160905,5.052572582216275,2.5042655555943574,
236.0428054662393,5.052378234505857,2.5016241917054165,
237.04300643086953,5.052184914758829,2.4989950751244905,
238.04320739549976,5.051992613667743,2.4963780941319604,
239.04340836013,5.051801322047353,2.493773138476379,
240.04360932476024,5.0516110308325235,2.491180099349124,
241.04381028939048,5.0514217310761635,2.488598869359529,
242.04401125402072,5.051233413947223,2.4860293425105873,
243.04421221865096,5.051046070728719,2.48347141417514,
244.0444131832812,5.050859692815811,2.480924981072593,
245.04461414791143,5.050674271713909,2.478389941246098,
246.04481511254167,5.050489799036828,2.4758661940402162,
247.0450160771719,5.050306266504976,2.473353640079081,
248.04521704180215,5.050123665943584,2.4708521812449527,
249.04541800643239,5.049941989280965,2.4683617206572768,
250.04561897106262,5.049761228546817,2.4658821626521297,
251.04581993569286,5.049581375870554,2.4634134127621046,
252.0460209003231,5.049402423479676,2.460955377696622,
253.04622186495334,5.049224363698166,2.4585079653225965,
254.04642282958358,5.049047188944929,2.456071084645556,
255.04662379421382,5.048870891732247,2.4536446457910728,
256.046824758844,5.048695464664283,2.451228559986637,
257.04702572347423,5.0485209004356015,2.448822739543841,
258.04722668810444,5.0483471918297225,2.4464270978409557,
259.04742765273465,5.048174331717705,2.444041549305814,
260.04762861736486,5.048002313056759,2.4416660093990656,
261.0478295819951,5.047831128888879,2.4393003945977494,
262.0480305466253,5.047660772339515,2.436944622379205,
263.0482315112555,5.047491236616257,2.4345986112052587,
264.0484324758857,5.047322515007555,2.432262280506751,
265.0486334405159,5.047154600881457,2.4299355506683766,
266.0488344051461,5.046987487684376,2.4276183430137706,
267.04903536977633,5.046821168939876,2.4253105797909233,
268.04923633440654,5.046655638247486,2.4230121841578645,
269.04943729903675,5.046490889281535,2.4207230801686053,
270.04963826366696,5.046326915790004,2.4184431927593666,
271.0498392282972,5.04616371159341,2.4161724477350615,
272.0500401929274,5.046001270583699,2.4139107717560324,
273.0502411575576,5.045839586723172,2.4116580923250615,
274.0504421221878,5.045678654043422,2.409414337774578,
275.050643086818,5.045518466644291,2.407179437254136,
276.0508440514482,5.045359018692854,2.4049533207181315,
277.05104501607843,5.045200304422415,2.402735918913734,
278.05124598070864,5.045042318131521,2.4005271633690257,
279.05144694533885,5.044885054182999,2.3983269863814014,
280.05164790996906,5.0447285070030095,2.3961353210061493,
281.0518488745993,5.044572671080111,2.39395210104525,
282.0520498392295,5.044417540964351,2.391777261036375,
283.0522508038597,5.044263111266365,2.3896107362420933,
284.0524517684899,5.044109376656499,2.387452462639268,
285.0526527331201,5.04395633186394,2.3853023769086494,
286.0528536977503,5.043803971675874,2.383160416424658,
287.05305466238053,5.04365229093664,2.38102651924533,
288.05325562701074,5.04350128454692,2.3789006241024584,
289.05345659164095,5.04335094746293,2.3767826703919104,
290.05365755627116,5.043201274695628,2.374672598164135,
291.0538585209014,5.043052261309939,2.372570348114781,
292.0540594855316,5.042903902423992,2.370475861575546,
293.0542604501618,5.042756193208368,2.3683890805051506,
294.054461414792,5.042609128885363,2.366309947480466,
295.0546623794222,5.0424627047282655,2.364238405687809,
296.0548633440524,5.042316916060643,2.362174398914401,
297.05506430868263,5.042171758255645,2.360117871539955,
298.05526527331284,5.042027226735312,2.358068768528403,
299.05546623794305,5.041883316969905,2.356027035419778,
300.05566720257326,5.041740024477235,2.3539926183222457,
301.05586816720347,5.041597344822016,2.3519654639042358,
302.0560691318337,5.041455273615219,2.3499455193867678,
303.0562700964639,5.041313806513447,2.34793273253584,
304.0564710610941,5.041172939218307,2.3459270516549946,
305.0566720257243,5.041032667475807,2.3439284255779747,
306.0568729903545,5.0408929870757495,2.3419368036615205,
307.05707395498473,5.040753893851151,2.3399521357783177,
308.05727491961494,5.040615383677655,2.3379743723100113,
309.05747588424515,5.040477452472963,2.3360034641403415,
310.05767684887536,5.040340096196278,2.334039362648448,
311.05787781350557,5.040203310847747,2.3320820197022005,
312.0580787781358,5.040067092467922,2.3301313876517264,
313.058279742766,5.039931437137228,2.328187419322988,
314.0584807073962,5.039796340975434,2.3262500680114595,
315.0586816720264,5.039661800141139,2.324319287475962,
316.0588826366566,5.039527810831265,2.322395031932541,
317.05908360128683,5.039394369280556,2.320477256048486,
318.05928456591704,5.039261471761086,2.318565914936401,
319.05948553054725,5.039129114581776,2.316660964148426,
320.05968649517746,5.038997294087918,2.3147623596705005,
321.05988745980767,5.038866006660705,2.312870057916753,
322.0600884244379,5.038735248716775,2.3109840157239727,
323.0602893890681,5.03860501670775,2.3091041903461482,
324.0604903536983,5.038475307119795,2.307230539449116,
325.0606913183285,5.0383461164731775,2.305363021105297,
326.0608922829587,5.038217441321834,2.303501593788501,
327.06109324758893,5.038089278252943,2.301646216368795,
328.06129421221914,5.03796162388651,2.299796848107511,
329.06149517684935,5.037834474874951,2.2979534486522706,
330.06169614147956,5.03770782790269,2.2961159780321228,
331.06189710610977,5.037581679685754,2.294284396652743,
332.06209807074,5.037456026971387,2.292458665291716,
333.0622990353702,5.037330866537652,2.290638745093863,
334.0625000000004,5.037206195193061,2.2888245975667005,
335.0627009646306,5.0370820097761895,2.28701618457589,
336.0629019292608,5.036958307155312,2.285213468340838,
337.063102893891,5.036835084228035,2.2834164114302835,
338.06330385852124,5.03671233792094,2.2816249767580286,
339.06350482315145,5.036590065189228,2.2798391275786853,
340.06370578778166,5.036468263016372,2.2780588274834885,
341.06390675241187,5.036346928413777,2.2762840403961944,
342.0641077170421,5.036226058420436,2.274514730569023,
343.0643086816723,5.036105650102603,2.272750862578683,
344.0645096463025,5.035985700553463,2.2709924013224208,
345.0647106109327,5.03586620689281,2.269239312014152,
346.0649115755629,5.0357471662667255,2.2674915601806496,
347.0651125401931,5.03562857584727,2.265749111657794,
348.06531350482334,5.035510432832171,2.264011932586844,
349.06551446945355,5.035392734444521,2.2622799894108283,
350.06571543408376,5.035275477932474,2.2605532488709086,
351.06591639871397,5.035158660568955,2.25883167800286,
352.0661173633442,5.035042279651365,2.2571152441335838,
353.0663183279744,5.034926332501295,2.2554039148776477,
354.0665192926046,5.034810816464246,2.253697658133908,
355.0667202572348,5.0346957289093455,2.25199644208218,
356.066921221865,5.034581067229078,2.2503002351799193,
357.0671221864952,5.034466828839009,2.248609006158989,
358.06732315112544,5.034353011177524,2.246922724022462,
359.06752411575565,5.034239611705561,2.245241358041472,
360.06772508038586,5.034126627906354,2.2435648777520987,
361.06792604501607,5.034014057285176,2.2418932529523037,
362.0681270096463,5.033901897369085,2.2402264536988943,
363.0683279742765,5.033790145706682,2.238564450304585,
364.0685289389067,5.03367879986786,2.236907213335024,
365.0687299035369,5.033567857443566,2.23525471360592,
366.0689308681671,5.033457316045559,2.233606922180165,
367.0691318327973,5.033347173306181,2.231963810365044,
368.06933279742753,5.033237426878122,2.2303253497094566,
369.06953376205774,5.033128074434192,2.2286915120011686,
370.06973472668795,5.033019113667096,2.227062269264116,
371.06993569131816,5.032910542289213,2.2254375937557547,
372.0701366559484,5.032802358032376,2.2238174579644183,
373.0703376205786,5.032694558647658,2.22220183460674,
374.0705385852088,5.032587141905156,2.2205906966251097,
375.070739549839,5.032480105593785,2.218984017185136,
376.0709405144692,5.032373447521066,2.2173817696731764,
377.0711414790994,5.032267165512927,2.215783927693876,
378.07134244372963,5.032161257413497,2.2141904650677615,
379.07154340835984,5.03205572108491,2.2126013558288427,
