Time,Mass,Radius,Lx
23.0,68.9970542082866,10.27,1.44e+30
33.0,68.95861486597687,10.266378377548584,1.44e+30
43.0,68.92019255652734,10.262757619217485,1.44e+30
53.0,68.88178727420569,10.259137724887102,1.44e+30
63.0,68.843399013281,10.255518694437846,1.44e+30
73.0,68.80502776802376,10.251900527750134,1.44e+30
83.0,68.7666735327059,10.248283224704403,1.44e+30
93.0,68.7283363016007,10.244666785181092,1.44e+30
103.0,68.69001606898293,10.241051209060654,1.44e+30
113.0,68.6517128291287,10.237436496223555,1.44e+30
123.0,68.61342657631558,10.23382264655027,1.44e+30
133.0,68.57515730482253,10.23020965992128,1.44e+30
143.0,68.53690500892992,10.22659753621709,1.44e+30
153.0,68.49866968291954,10.222986275318203,1.44e+30
163.0,68.46045132107457,10.219375877105136,1.44e+30
173.0,68.42224991767964,10.215766341458423,1.44e+30
183.0,68.38406546702073,10.212157668258598,1.44e+30
193.0,68.34589796338528,10.208549857386217,1.44e+30
203.0,68.30774740106212,10.204942908721838,1.44e+30
213.0,68.26961377434147,10.201336822146034,1.44e+30
223.0,68.23149707751497,10.197731597539391,1.44e+30
233.0,68.1933973048757,10.194127234782501,1.44e+30
243.0,68.15552722729396,10.190543869294931,1.387968291736767e+30
253.0,68.12071258365225,10.187248972059262,1.2316662734218558e+30
263.0,68.0894900734055,10.184293512580211,1.0980400283040785e+30
273.0,68.06137084550761,10.181631377709197,9.831159418024848e+29
283.0,68.03594750893939,10.17922412371049,8.837283474673251e+29
293.0,68.01287824131572,10.17703948315644,7.973340551030125e+29
303.0,67.99187441975927,10.175050202049928,7.218740088333195e+29
313.0,67.97269090575662,10.173233125951848,6.556690138537163e+29
323.0,67.95511835001234,10.17156847575761,5.973403729388387e+29
333.0,67.93897704925357,10.17003926926813,5.4574893069167724e+29
343.0,67.92411200587107,10.168630855821203,4.999478564318289e+29
353.0,67.91038892748132,10.167330539315381,4.5914577668434504e+29
363.0,67.89769096662114,10.1661272708702,4.226777725171934e+29
373.0,67.88591604747063,10.165011396741397,3.899824027084722e+29
383.0,67.87497466134148,10.163974450376903,3.6058337951456714e+29
393.0,67.8647880388959,10.163008979960253,3.340748630135671e+29
403.0,67.85528662696589,10.162108404656559,3.101095892433167e+29
413.0,67.8464088130652,10.161266894206024,2.883892320567669e+29
423.0,67.8380998524116,10.16047926761167,2.6865653659398254e+29
433.0,67.83031096137259,10.159740907523034,2.5068886612757095e+29
443.0,67.82299854834704,10.15904768758524,2.3429288277934565e+29
453.0,67.81612355867323,10.158395910547602,2.193001427152766e+29
463.0,67.80965091456011,10.157782255340667,2.055634326120496e+29
473.0,67.80354903454075,10.157203731660191,1.9295370989793805e+29
483.0,67.79778941974392,10.156657640860118,1.813575370437979e+29
493.0,67.7923462965259,10.156141542168028,1.7067492190316908e+29
503.0,67.78719630681695,10.155653223407443,1.6081749318369664e+29
513.0,67.78231823900532,10.155190675549695,1.5170695363611008e+29
523.0,67.77769279337845,10.154752070530881,1.4327376427473303e+29
533.0,67.77330237711837,10.154335741861676,1.3545602150628224e+29
543.0,67.76913092465169,10.153940167633406,1.2819849590967025e+29
553.0,67.76516373981656,10.153563955586387,1.2145180693903968e+29
563.0,67.7613873568564,10.153205829958036,1.151717122942278e+29
573.0,67.75778941770527,10.152864619871348,1.0931849433420034e+29
583.0,67.75435856340864,10.152539249059952,1.0385642886922809e+29
593.0,67.75108433784042,10.152228726756032,9.87533240897917e+28
603.0,67.74795710214264,10.151932139592361,9.39801193793575e+28
613.0,67.74496795853825,10.15164864439092,8.951053539739228e+28
623.0,67.74210868235627,10.151377461728368,8.532076817439053e+28
633.0,67.73937166126792,10.151117870183702,8.138922108506396e+28
643.0,67.73674984086884,10.150869201186365,7.769626950149808e+28
653.0,67.7342366758573,10.150630834393805,7.422405370906078e+28
663.0,67.73182608615728,10.150402193536998,7.0956296321637184e+28
673.0,67.72951241741939,10.150182742680244,6.78781409816373e+28
683.0,67.72729040540523,10.149971982848514,6.4976009592284e+28
693.0,67.72515514382276,10.149769448981418,6.223747571970873e+28
703.0,67.72310205523388,10.149574707177974,5.965115213244447e+28
713.0,67.72112686470182,10.149387352200744,5.7206590725929785e+28
723.0,67.719225575886,10.14920700521164,5.489419331778747e+28
733.0,67.71739444932665,10.149033311715058,5.270513200265877e+28
743.0,67.71562998269188,10.148865939686807,5.063127792883853e+28
753.0,67.71392889278613,10.148704577869806,4.866513750750146e+28
763.0,67.71228809914182,10.148548934219685,4.679979519279022e+28
773.0,67.71070470903628,10.148398734485374,4.502886208067051e+28
783.0,67.70917600379344,10.148253720911326,4.334642966893836e+28
793.0,67.70769942624538,10.148113651049586,4.174702820234718e+28
803.0,67.70627256924217,10.147978296671166,4.02255890974058e+28
813.0,67.70489316511068,10.147847442767254,3.877741100257988e+28
823.0,67.70355907597323,10.147720886631904,3.7398129102760894e+28
833.0,67.7022682848467,10.147598437018607,3.608368732308813e+28
843.0,67.70101888745032,10.147479913364032,3.4830313127492114e+28
853.0,67.6998090846584,10.147365145072825,3.3634494642492926e+28
863.0,67.6986371755401,10.14725397085804,3.249295986753711e+28
873.0,67.69750155093452,10.147146238132267,3.140265776008921e+28
883.0,67.69640068751418,10.147041802445033,3.036074100732076e+28
893.0,67.69533314229493,10.146940526962501,2.9364550316997405e+28
903.0,67.69429754755386,10.14684228198582,2.8411600078431256e+28
913.0,67.69329260612105,10.146746944504894,2.7499565260461784e+28
923.0,67.6923170870136,10.14665439778458,2.662626942763413e+28
933.0,67.69136982138396,10.146564530980667,2.578967376829759e+28
943.0,67.69044969875652,10.146477238783174,2.498786703945703e+28
953.0,67.68955566352946,10.14639242108477,2.4219056343055197e+28
963.0,67.68868671172028,10.1463099826723,2.3481558657100016e+28
973.0,67.687841887936,10.146229832939593,2.277379305281264e+28
983.0,67.68702028255018,10.14615188561986,2.2094273535877096e+28
993.0,67.68622102907075,10.146076058536197,2.1441602456022587e+28
1003.0,67.68544281654306,10.146002227341981,2.090081135351165e+28
1013.0,67.68467818488936,10.14592968429968,2.057564507998924e+28
1023.0,67.68392439504068,10.145858169559512,2.0258657787155107e+28
1033.0,67.68318118909029,10.145787658665405,1.9949566780668547e+28
1043.0,67.6824483176937,10.145718127973057,1.9648101746444167e+28
1053.0,67.68172553970533,10.14564955461549,1.9354004096365916e+28
1063.0,67.68101262183403,10.145581916470404,1.90670263543932e+28
1073.0,67.68030933831608,10.145515192129169,1.8786931580213176e+28
1083.0,67.67961547060472,10.145449360867403,1.851349282781836e+28
1093.0,67.67893080707523,10.145384402617006,1.824649263659377e+28
1103.0,67.67825514274469,10.145320297939605,1.7985722552685233e+28
1113.0,67.67758827900539,10.145257028001275,1.7730982678592005e+28
1123.0,67.67693002337134,10.145194574548508,1.748208124908331e+28
1133.0,67.67628018923696,10.145132919885338,1.723883423168225e+28
1143.0,67.67563859564736,10.145072046851567,1.700106495009184e+28
1153.0,67.67500506707945,10.145011938802014,1.6768603729058693e+28
1163.0,67.67437943323343,10.144952579586743,1.6541287559280541e+28
1173.0,67.67376152883391,10.144893953532211,1.6318959781065499e+28
1183.0,67.67315119344032,10.144836045423302,1.6101469785544454e+28
1193.0,67.67254827126594,10.144778840486158,1.588867273232399e+28
1203.0,67.67195261100515,10.144722324371811,1.5680429282546348e+28
1213.0,67.67136406566857,10.14466648314055,1.5476605346395964e+28
1223.0,67.67078249242543,10.14461130324698,1.5277071844159233e+28
1233.0,67.67020775245304,10.144556771525748,1.5081704480006252e+28
1243.0,67.66963971079281,10.144502875177892,1.4890383527720523e+28
1253.0,67.66907823621263,10.144449601757799,1.4702993627655415e+28
1263.0,67.66852320107512,10.144396939160707,1.4519423594245204e+28
1273.0,67.6679744812116,10.144344875610765,1.433956623344352e+28
1283.0,67.66743195580142,10.144293399649584,1.41633181695041e+28
1293.0,67.66689550725637,10.144242500125287,1.3990579680557288e+28
1303.0,67.66636502110995,10.144192166182002,1.3821254542471741e+28
1313.0,67.6658403859113,10.144142387249808,1.3655249880524102e+28
1323.0,67.66532149312337,10.14409315303509,1.3492476028430196e+28
1333.0,67.6648082370255,10.144044453511286,1.333284639432007e+28
1343.0,67.6643005146197,10.143996278910016,1.3176277333265775e+28
1353.0,67.66379822554093,10.14394861971257,1.3022688025995552e+28
1363.0,67.66330127197087,10.143901466641726,1.2872000363451093e+28
1373.0,67.66280955855511,10.143854810653911,1.272413883686598e+28
1383.0,67.66232299232374,10.143808642931662,1.257903043306326e+28
1393.0,67.66184148261486,10.14376295487638,1.2436604534688825e+28
1403.0,67.66136494100127,10.143717738101374,1.2296792825114366e+28
1413.0,67.66089328121981,10.143672984425166,1.2159529197759997e+28
1423.0,67.6604264191036,10.143628685865064,1.2024749669601522e+28
1433.0,67.65996427251669,10.143584834630964,1.1892392298641452e+28
1443.0,67.65950676129133,10.143541423119407,1.1762397105136008e+28
1453.0,67.65905380716745,10.14349844390784,1.1634705996382474e+28
1463.0,67.6586053337346,10.143455889749104,1.1509262694882854e+28
1473.0,67.65816126637583,10.14341375356612,1.1386012669710393e+28
1483.0,67.65772153221377,10.143372028446779,1.1264903070915544e+28
1493.0,67.65728606005868,10.143330707639002,1.114588266681745e+28
1503.0,67.6568547803583,10.143289784546006,1.102890178403556e+28
1513.0,67.65642762514965,10.143249252721713,1.0913912250124469e+28
1523.0,67.65600452801239,10.143209105866344,1.0800867338682597e+28
1533.0,67.655585424024,10.143169337822155,1.0689721716812628e+28
1543.0,67.65517024971645,10.143129942569342,1.058043139481841e+28
1553.0,67.65475894303442,10.143090914222068,1.0472953678029298e+28
1563.0,67.65435144329503,10.143052247024654,1.036724712064904e+28
1573.0,67.65394769114884,10.143013935347875,1.0263271481531739e+28
1583.0,67.65354762854237,10.142975973685404,1.0160987681792809e+28
1593.0,67.65315119868174,10.142938356650374,1.0060357764167797e+28
1603.0,67.65275834599767,10.142901078972049,9.961344854036515e+27
1613.0,67.6523690161116,10.142864135492617,9.863913122034388e+27
1623.0,67.65198315580301,10.14282752116409,9.768027748177005e+27
1633.0,67.6516007129777,10.142791231045292,9.67365488742779e+27
1643.0,67.65122163663732,10.142755260298983,9.580761636642259e+27
1653.0,67.65084587684974,10.142719604189029,9.489316002825918e+27
1663.0,67.6504733847205,10.142684258077713,9.399286872645987e+27
1673.0,67.6501041123651,10.142649217423097,9.310643983140233e+27
1683.0,67.6497380128823,10.142614477776494,9.223357893569133e+27
1693.0,67.64937504032817,10.142580034780007,9.137399958360179e+27
1703.0,67.64901514969107,10.142545884164157,9.05274230109589e+27
1713.0,67.64865829686732,10.142512021745574,8.96935778949935e+27
1723.0,67.64830443863778,10.142478443424775,8.887220011373481e+27
1733.0,67.647953532645,10.142445145184002,8.806303251452434e+27
1743.0,67.64760553737129,10.142412123085139,8.726582469125438e+27
1753.0,67.64726041211723,10.142379373267675,8.648033276995488e+27
1763.0,67.6469181169811,10.142346891946751,8.570631920237025e+27
1773.0,67.64657861283872,10.142314675411255,8.49435525671848e+27
1783.0,67.6462418613241,10.142282720021978,8.419180737857249e+27
1793.0,67.64590782481048,10.142251022209823,8.345086390176169e+27
1803.0,67.64557646639214,10.14221957847408,8.272050797532034e+27
1813.0,67.64524774986664,10.142188385380734,8.200053083988135e+27
1823.0,67.6449216397176,10.14215743956084,8.129072897304038e+27
1833.0,67.64459810109803,10.142126737708942,8.059090393017164e+27
1843.0,67.64427709981416,10.142096276581533,7.990086219091827e+27
1853.0,67.6439586023097,10.142066052995569,7.922041501112572e+27
1863.0,67.64364257565056,10.142036063827021,7.854937827999701e+27
1873.0,67.64332898751012,10.142006306009465,7.788757238225886e+27
1883.0,67.64301780615476,10.14197677653273,7.723482206513706e+27
1893.0,67.64270900042995,10.141947472441561,7.659095630994922e+27
1903.0,67.64240253974667,10.141918390834347,7.595580820813075e+27
1913.0,67.64209839406824,10.141889528861853,7.532921484151906e+27
1923.0,67.6417965338975,10.141860883726022,7.471101716672822e+27
1933.0,67.6414969302644,10.141832452678786,7.410105990345382e+27
1943.0,67.64119955471385,10.141804233020926,7.349919142655515e+27
1953.0,67.64090437929404,10.141776222100951,7.290526366176811e+27
1963.0,67.64061137654497,10.141748417314018,7.231913198490886e+27
1973.0,67.64032051948732,10.141720816100873,7.174065512443448e+27
1983.0,67.6400317816117,10.141693415946838,7.116969506723222e+27
1993.0,67.6397451368681,10.141666214380802,7.060611696751503e+27
2003.0,67.63946055965569,10.141639208974258,7.004978905870561e+27
2013.0,67.63917802481286,10.14161239734036,6.9500582568197e+27
2023.0,67.63889750760755,10.141585777133,6.895837163488174e+27
2033.0,67.63861898372784,10.141559346045922,6.842303322934677e+27
2043.0,67.63834242927277,10.14153310181185,6.78944470766351e+27
2053.0,67.63806782074342,10.141507042201638,6.737249558147974e+27
2063.0,67.63779513503424,10.141481165023453,6.685706375591914e+27
2073.0,67.6375243494246,10.141455468121968,6.634803914920715e+27
2083.0,67.63725544157052,10.141429949377589,6.584531177993409e+27
2093.0,67.63698838949666,10.141404606705676,6.534877407027916e+27
2103.0,67.63672317158856,10.141379438055825,6.485832078231711e+27
2113.0,67.63645976658493,10.141354441411131,6.437384895630586e+27
2123.0,67.63619815357036,10.141329614787493,6.389525785088442e+27
2133.0,67.63593831196798,10.14130495623292,6.342244888511314e+27
2143.0,67.63568022153247,10.141280463826872,6.295532558229129e+27
2153.0,67.63542386234322,10.141256135679606,6.24937935154897e+27
2163.0,67.6351692147976,10.141231969931543,6.203776025473794e+27
2173.0,67.63491625960448,10.141207964752642,6.158713531580889e+27
2183.0,67.63466497777783,10.14118411834181,6.114183011054509e+27
2193.0,67.63441535063055,10.141160428926304,6.070175789867359e+27
2203.0,67.6341673597684,10.141136894761159,6.026683374105825e+27
2213.0,67.63392098708412,10.141113514128634,5.983697445434027e+27
2223.0,67.63367621475169,10.141090285337658,5.941209856691981e+27
2233.0,67.63343302522068,10.14106720672331,5.899212627623287e+27
2243.0,67.63319140121082,10.141044276646284,5.857697940728021e+27
2253.0,67.63295132570664,10.141021493492397,5.816658137236578e+27
2263.0,67.63271278195222,10.140998855672088,5.776085713200457e+27
2273.0,67.63247575344617,10.140976361619929,5.735973315696062e+27
2283.0,67.63224022393662,10.140954009794171,5.696313739137784e+27
2293.0,67.63200617741637,10.140931798676268,5.65709992169678e+27
2303.0,67.63177359811817,10.140909726770431,5.618324941821917e+27
2313.0,67.6315424705101,10.1408877926032,5.579982014859597e+27
2323.0,67.63131277929104,10.140865994723,5.5420644897692e+27
2333.0,67.6310845093863,10.140844331699743,5.504565845931068e+27
2343.0,67.63085764594327,10.140822802124399,5.467479690044014e+27
2353.0,67.63063217432722,10.140801404608606,5.430799753109507e+27
2363.0,67.63040808011723,10.140780137784287,5.394519887499714e+27
2373.0,67.63018534910216,10.140759000303259,5.358634064106775e+27
2383.0,67.62996396727671,10.140737990836866,5.323136369570685e+27
2393.0,67.62974392083758,10.140717108075616,5.288021003583316e+27
2403.0,67.62952519617978,10.140696350728824,5.253282276266181e+27
2413.0,67.62930777989291,10.140675717524262,5.218914605619628e+27
2423.0,67.62909165875762,10.14065520720783,5.184912515041214e+27
2433.0,67.62887681974206,10.140634818543209,5.151270630911126e+27
2443.0,67.62866324999857,10.140614550311554,5.117983680242569e+27
2453.0,67.62845093686019,10.140594401311159,5.085046488395105e+27
2463.0,67.62823986783752,10.14057437035716,5.052453976849009e+27
2473.0,67.62803003061546,10.140554456281231,5.020201161038791e+27
2483.0,67.62782141305007,10.140534657931278,4.98828314824405e+27
2493.0,67.62761400316555,10.140514974171158,4.956695135535962e+27
2503.0,67.6274077891512,10.14049540388039,4.925432407777659e+27
2513.0,67.6272027593586,10.140475945953881,4.8944903356769395e+27
2523.0,67.62699890229858,10.140456599301652,4.863864373889693e+27
2533.0,67.62679620663856,10.140437362848575,4.833550059172542e+27
2543.0,67.62659466119976,10.140418235534108,4.803543008583241e+27
2553.0,67.62639425495449,10.140399216312048,4.773838917727393e+27
2563.0,67.62619497702357,10.14038030415027,4.7444335590501514e+27
2573.0,67.62599681667372,10.140361498030499,4.7153227801715404e+27
2583.0,67.62579976331507,10.140342796948058,4.686502502264155e+27
2593.0,67.6256038064987,10.14032419991164,4.657968718471975e+27
2603.0,67.6254089359142,10.140305705943083,4.629717492369114e+27
2613.0,67.62521514138732,10.140287314077133,4.601744956457332e+27
2623.0,67.62502241287767,10.140269023361242,4.574047310701211e+27
2633.0,67.62483074047647,10.140250832855338,4.546620821099889e+27
2643.0,67.62464011440429,10.140232741631628,4.51946181829432e+27
2653.0,67.62445052500891,10.14021474877438,4.4925666962090457e+27
2663.0,67.62426196276317,10.140196853379727,4.4659319107274855e+27
2673.0,67.62407441826292,10.140179054555473,4.439553978399809e+27
2683.0,67.62388788222495,10.14016135142089,4.4134294751824675e+27
2693.0,67.62370234548499,10.14014374310654,4.3875550352084826e+27
2703.0,67.62351779899576,10.140126228754076,4.361927349587651e+27
2713.0,67.62333423382506,10.14010880751607,4.3365431652358174e+27
2723.0,67.62315164115387,10.140091478555828,4.3113992837324027e+27
2733.0,67.6229700122745,10.140074241047225,4.28649256020542e+27
2743.0,67.62278933858879,10.14005709417452,4.2618199022432046e+27
2753.0,67.62260961160638,10.140040037132197,4.2373782688321333e+27
2763.0,67.6224308229429,10.140023069124798,4.213164669319616e+27
2773.0,67.62225296431832,10.140006189366758,4.1891761624016685e+27
2783.0,67.62207602755525,10.139989397082259,4.165409855134403e+27
2793.0,67.62190000457733,10.139972691505056,4.1418629019687787e+27
2803.0,67.62172488740758,10.139956071878336,4.118532503807997e+27
2813.0,67.62155066816692,10.139939537454575,4.095415907086919e+27
2823.0,67.6213773390725,10.139923087495374,4.072510402872924e+27
2833.0,67.6212048924363,10.139906721271332,4.0498133259876243e+27
2843.0,67.62103332066357,10.139890438061895,4.0273220541488994e+27
2853.0,67.62086261625142,10.139874237155228,4.0050340071326904e+27
2863.0,67.62069277178733,10.139858117848059,3.982946645954044e+27
2873.0,67.62052377994786,10.139842079445575,3.961057472066896e+27
2883.0,67.62035563349714,10.139826121261269,3.939364026582101e+27
2893.0,67.62018832528564,10.139810242616818,3.917863889503228e+27
2903.0,67.62002184824875,10.139794442841966,3.896554678979668e+27
2913.0,67.61985619540556,10.13977872127439,3.8754340505765916e+27
2923.0,67.61969135985754,10.13976307725958,3.8544996965613276e+27
2933.0,67.61952733478729,10.139747510150729,3.8337493452057357e+27
2943.0,67.61936411345734,10.139732019308607,3.8131807601041674e+27
2953.0,67.6192016892089,10.13971660410145,3.792791739506602e+27
2963.0,67.61904005546073,10.139701263904854,3.7725801156665846e+27
2973.0,67.61887920570796,10.139685998101656,3.7525437542035844e+27
2983.0,67.61871913352093,10.139670806081828,3.732680553479397e+27
2993.0,67.61855983254408,10.139655687242373,3.7129884439882546e+27
3003.0,67.61840129649487,10.13964064098722,3.6934653877602815e+27
3013.0,67.61824351916268,10.139625666727124,3.674109377777966e+27
3023.0,67.61808649440776,10.139610763879556,3.654918437405324e+27
3033.0,67.61793021616019,10.13959593186862,3.635890619829437e+27
3043.0,67.61777467841885,10.139581170124943,3.617024007514053e+27
3053.0,67.61761987525045,10.139566478085584,3.5983167116649533e+27
3063.0,67.61746580078848,10.139551855193941,3.5797668717067947e+27
3073.0,67.6173124492323,10.139537300899661,3.5613726547711475e+27
3083.0,67.61715981484616,10.139522814658546,3.5431322551954445e+27
3093.0,67.6170078919583,10.139508395932468,3.5250438940325866e+27
3103.0,67.61685667495996,10.139494044189277,3.507105818570932e+27
