Time,Mass,Radius,Lx
23.0,6.728688454232868,8.74,0.0
23.100002009282885,6.7272840574540895,8.734280748871386,0.0
23.20000401856577,6.725888571279183,8.728592722399435,0.0
23.300006027848656,6.7245019001627755,8.722935615971956,0.0
23.400008037131542,6.723123949993112,8.717309129232634,0.0
23.500010046414427,6.721754628064501,8.711712966003844,0.0
23.600012055697313,6.7203938430503944,8.706146834211195,0.0
23.7000140649802,6.719041504977102,8.700610445809712,0.0
23.800016074263084,6.717697525198109,8.695103516711697,0.0
23.90001808354597,6.716361816368995,8.689625766716137,0.0
24.000020092828855,6.715034292422918,8.684176919439668,0.0
24.10002210211174,6.713714868546675,8.678756702249057,0.0
24.200024111394626,6.712403461157295,8.673364846195124,0.0
24.30002612067751,6.711099987879172,8.668001085948127,0.0
24.400028129960397,6.709804367521714,8.662665159734502,0.0
24.500030139243282,6.708516520057491,8.657356809274985,0.0
24.600032148526168,6.707236366600882,8.65207577972405,0.0
24.700034157809053,6.705963829387192,8.646821819610631,0.0
24.80003616709194,6.704698831752237,8.64159468078011,0.0
24.900038176374824,6.703441298112379,8.6363941183375,0.0
25.00004018565771,6.702191153945004,8.63121989059188,0.0
25.100042194940595,6.700948325769434,8.626071759001933,0.0
25.20004420422348,6.699712741128245,8.62094948812265,0.0
25.300046213506366,6.698484328569005,8.61585284555314,0.0
25.400048222789252,6.697263017626405,8.610781601885524,0.0
25.500050232072137,6.696048738804769,8.605735530654862,0.0
25.600052241355023,6.694841423560954,8.600714408290123,0.0
25.70005425063791,6.693641004287609,8.595718014066176,0.0
25.800056259920794,6.692447414296796,8.590746130056711,0.0
25.90005826920368,6.691260587803954,8.58579854108817,0.0
26.000060278486565,6.690080459912214,8.580875034694571,0.0
26.10006228776945,6.6889069665970355,8.575975401073256,0.0
26.200064297052336,6.687740044691172,8.571099433041535,0.0
26.30006630633522,6.686579631869953,8.566246925994182,0.0
26.400068315618107,6.685425666636865,8.561417677861778,0.0
26.500070324900992,6.6842780883094495,8.5566114890699,0.0
26.600072334183878,6.683136837005476,8.551828162499097,0.0
26.700074343466763,6.68200185362941,8.54706750344566,0.0
26.80007635274965,6.680873079859162,8.542329319583164,0.0
26.900078362032534,6.6797504581331,8.53761342092476,0.0
27.00008037131542,6.678633931637333,8.532919619786203,0.0
27.100082380598305,6.677523444293256,8.528247730749595,0.0
27.20008438988119,6.676418940745342,8.523597570627837,0.0
27.300086399164076,6.6753203663491805,8.518968958429749,0.0
27.400088408446962,6.674227667159766,8.514361715325883,0.0
27.500090417729847,6.6731407899200095,8.509775664614962,0.0
27.600092427012733,6.672059682049489,8.505210631690991,0.0
27.70009443629562,6.6709842916334186,8.500666444010964,0.0
27.800096445578504,6.6699145674118405,8.496142931063195,0.0
27.90009845486139,6.668850458769028,8.491639924336257,0.0
28.000100464144275,6.6677919157230985,8.487157257288464,0.0
28.10010247342716,6.6667388889158286,8.482694765317994,0.0
28.200104482710046,6.665691329602674,8.478252285733483,0.0
28.30010649199293,6.664649189642978,8.473829657725254,0.0
28.400108501275817,6.663612421490372,8.469426722337001,0.0
28.500110510558702,6.662580978183366,8.465043322438051,0.0
28.600112519841588,6.661554813336111,8.46067930269611,0.0
28.700114529124473,6.660533881129352,8.45633450955052,0.0
28.80011653840736,6.659518136301543,8.452008791185987,0.0
28.900118547690244,6.6585075341401385,8.447701997506812,0.0
29.00012055697313,6.657502030473048,8.443413980111574,0.0
29.100122566256015,6.656501581660254,8.439144592268274,0.0
29.2001245755389,6.6555061445855825,8.434893688889925,0.0
29.300126584821786,6.654515676648642,8.430661126510588,0.0
29.40012859410467,6.653530135756898,8.426446763261824,0.0
29.500130603387557,6.652549480317907,8.42225045884958,0.0
29.600132612670443,6.651573669231688,8.418072074531485,0.0
29.700134621953328,6.6506026618832434,8.413911473094526,0.0
29.800136631236214,6.649636418135211,8.409768518833154,0.0
29.9001386405191,6.648674898320655,8.405643077527744,0.0
30.000140649801985,6.64771806323599,8.401535016423455,0.0
30.10014265908487,6.646765874134034,8.397444204209446,0.0
30.200144668367756,6.645818292717188,8.393370510998459,0.0
30.30014667765064,6.64487528113074,8.389313808306756,0.0
30.400148686933527,6.643936801956291,8.385273969034408,0.0
30.500150696216412,6.6430028182053,8.381250867445917,0.0
30.600152705499298,6.642073293312744,8.377244379151172,0.0
30.700154714782183,6.641148191130894,8.373254381086742,0.0
30.80015672406507,6.640227475923201,8.369280751497476,0.0
30.900158733347954,6.639311112358291,8.365323369918418,0.0
31.00016074263084,6.6383990655040686,8.361382117157042,0.0
31.100162751913725,6.637491300821924,8.357456875275767,0.0
31.20016476119661,6.6365877841610414,8.353547527574786,0.0
31.300166770479496,6.635688481752812,8.349653958575182,0.0
31.40016877976238,6.634793360205338,8.345776054002307,0.0
31.500170789045267,6.633902386498039,8.341913700769465,0.0
31.600172798328153,6.633015527976351,8.338066786961846,0.0
31.700174807611038,6.632132752346517,8.334235201820745,0.0
31.800176816893924,6.631254027670466,8.330418835728027,0.0
31.90017882617681,6.6303793223607865,8.32661758019086,0.0
32.000180835459695,6.62950860517578,8.322831327826687,0.0
32.100182844742584,6.628641845214603,8.319059972348462,0.0
32.20018485402547,6.627779011912493,8.315303408550108,0.0
32.30018686330836,6.626920075036071,8.31156153229222,0.0
32.40018887259125,6.6260650046787335,8.307834240488015,0.0
32.50019088187414,6.625213771256112,8.30412143108948,0.0
32.60019289115703,6.624366345501616,8.300423003073771,0.0
32.70019490043992,6.623522698462049,8.296738856429812,0.0
32.80019690972281,6.6226828014933,8.293068892145131,0.0
32.900198919005696,6.621846626256104,8.289413012192874,0.0
33.000200928288585,6.621014144711876,8.285771119519058,0.0
33.100202937571474,6.6201853291186135,8.282143118030016,0.0
33.20020494685436,6.619360152026869,8.27852891258003,0.0
33.30020695613725,6.618538586275784,8.274928408959177,0.0
33.40020896542014,6.617720604989197,8.271341513881355,0.0
33.50021097470303,6.616906181571803,8.267768134972494,0.0
33.60021298398592,6.616095289705393,8.264208180758983,0.0
33.70021499326881,6.615287903345137,8.260661560656217,0.0
33.8002170025517,6.614483996715943,8.257128184957397,0.0
33.90021901183459,6.613683544308864,8.253607964822436,0.0
34.000221021117476,6.61288652087757,8.250100812267085,0.0
34.100223030400365,6.612092901434876,8.246606640152207,0.0
34.200225039683254,6.61130266124932,8.243125362173204,0.0
34.30022704896614,6.610515775841809,8.239656892849643,0.0
34.40022905824903,6.609732220982303,8.236201147515006,0.0
34.50023106753192,6.6089519726865635,8.232758042306607,0.0
34.60023307681481,6.6081750072129495,8.229327494155664,0.0
34.7002350860977,6.607401301059266,8.22590942077754,0.0
34.80023709538059,6.606630830959658,8.222503740662093,0.0
34.90023910466348,6.605863573881563,8.219110373064195,0.0
35.000241113946366,6.6050995070226985,8.215729237994411,0.0
35.100243123229255,6.604338607808109,8.212360256209774,0.0
35.200245132512144,6.6035808538872525,8.209003349204743,0.0
35.30024714179503,6.602826223131134,8.205658439202253,0.0
35.40024915107792,6.6020746936294845,8.20232544914495,0.0
35.50025116036081,6.601326243687981,8.1990043026865,0.0
35.6002531696437,6.600580851825516,8.195694924183071,0.0
35.70025517892659,6.5998384967715,8.192397238684912,0.0
35.80025718820948,6.599099157463213,8.189111171928074,0.0
35.90025919749237,6.598362813043194,8.185836650326241,0.0
36.00026120677526,6.597629442856673,8.182573600962698,0.0
36.100263216058146,6.596899026449033,8.179321951582386,0.0
36.200265225341035,6.596171543563324,8.176081630584093,0.0
36.300267234623924,6.595446974137807,8.172852567012775,0.0
36.40026924390681,6.594725298303533,8.169634690551945,0.0
36.5002712531897,6.594006496381968,8.166427931516203,0.0
36.60027326247259,6.59329054888264,8.163232220843879,0.0
36.70027527175548,6.592577436500838,8.160047490089745,0.0
36.80027728103837,6.591867140115329,8.156873671417882,0.0
36.90027929032126,6.591159640786122,8.153710697594601,0.0
37.00028129960415,6.590454919752258,8.150558501981495,0.0
37.100283308887036,6.589752958429634,8.147417018528582,0.0
37.200285318169925,6.589053738408863,8.14428618176754,0.0
37.300287327452814,6.588357241453158,8.14116592680504,0.0
37.4002893367357,6.587663449496259,8.138056189316186,0.0
37.50029134601859,6.586972344640377,8.134956905538017,0.0
37.60029335530148,6.5862839091541785,8.131868012263135,0.0
37.70029536458437,6.585598125470795,8.128789446833398,0.0
37.80029737386726,6.584914976185859,8.125721147133708,0.0
37.90029938315015,6.584234444055577,8.122663051585894,0.0
38.00030139243304,6.583556511994821,8.119615099142663,0.0
38.10030340171593,6.582881163075255,8.116577229281646,0.0
38.200305410998816,6.582208380523483,8.113549381999524,0.0
38.300307420281705,6.581538147719224,8.11053149780624,0.0
38.400309429564594,6.580870448193521,8.107523517719283,0.0
38.50031143884748,6.580205265626968,8.104525383258041,0.0
38.60031344813037,6.579542583847958,8.101537036438259,0.0
38.70031545741326,6.578882386830972,8.098558419766547,0.0
38.80031746669615,6.578224658694873,8.095589476234974,0.0
38.90031947597904,6.577569383701243,8.09263014931573,0.0
39.00032148526193,6.576916546252725,8.089680382955867,0.0
39.10032349454482,6.576266130891403,8.086740121572108,0.0
39.200325503827706,6.575618122297199,8.083809310045721,0.0
39.300327513110595,6.574972505286292,8.080887893717463,0.0
39.400329522393484,6.574329264809556,8.077975818382603,0.0
39.50033153167637,6.573688385951032,8.075073030285992,0.0
39.60033354095926,6.573049853926405,8.072179476117226,0.0
39.70033555024215,6.572413654081516,8.06929510300583,0.0
39.80033755952504,6.571779771890884,8.06641985851656,0.0
39.90033956880793,6.5711481929562545,8.063553690644719,0.0
40.00034157809082,6.57051890300517,8.06069654781157,0.0
40.10034358737371,6.569891887889552,8.05784837885979,0.0
40.2003455966566,6.569267133584311,8.05500913304897,0.0
40.300347605939486,6.568644626185966,8.052178760051223,0.0
40.400349615222375,6.568024351911298,8.049357209946796,0.0
40.500351624505264,6.567406297096003,8.046544433219776,0.0
40.60035363378815,6.5667904481933785,8.043740380753816,0.0
40.70035564307104,6.56617679177302,8.040945003827964,0.0
40.80035765235393,6.565565314519535,8.038158254112501,0.0
40.90035966163682,6.5649560032312815,8.035380083664856,0.0
41.00036167091971,6.564348844819113,8.032610444925565,0.0
41.1003636802026,6.563743826305149,8.0298492907143,0.0
41.20036568948549,6.563140934821559,8.027096574225915,0.0
41.300367698768376,6.562540157609357,8.024352249026574,0.0
41.400369708051265,6.561941482017225,8.021616269049911,0.0
41.500371717334154,6.561344895500341,8.018888588593247,0.0
41.60037372661704,6.560750385619223,8.016169162313854,0.0
41.70037573589993,6.560157940038597,8.013457945225253,0.0
41.80037774518282,6.559567546526272,8.010754892693582,0.0
41.90037975446571,6.558979192952028,8.008059960433988,0.0
42.0003817637486,6.558392867286528,8.005373104507086,0.0
42.10038377303149,6.557808557600239,8.002694281315437,0.0
42.20038578231438,6.557226252062363,8.000023447600089,0.0
42.30038779159727,6.556645938939788,7.997360560437157,0.0
42.400389800880156,6.55606760659605,7.994705577234441,0.0
42.500391810163045,6.555491243490311,7.992058455728092,0.0
42.600393819445934,6.5549168381763465,7.989419153979309,0.0
42.70039582872882,6.554344379301546,7.986787630371092,0.0
42.80039783801171,6.5537738556059315,7.984163843605025,0.0
42.9003998472946,6.553205255921183,7.981547752698093,0.0
43.00040185657749,6.55263856916968,7.978939316979554,0.0
43.10040386586038,6.552073784363554,7.976338496087845,0.0
43.20040587514327,6.55151089060375,7.973745249967502,0.0
43.30040788442616,6.55094987707911,7.971159538866155,0.0
43.400409893709046,6.550390733065452,7.968581323331547,0.0
43.500411902991935,6.549833447924677,7.966010564208553,0.0
43.600413912274824,6.549278011103877,7.963447222636296,0.0
43.70041592155771,6.548724412134457,7.960891260045262,0.0
43.8004179308406,6.548172640631272,7.9583426381544395,0.0
43.90041994012349,6.547622686291764,7.9558013189685255,0.0
44.00042194940638,6.547074538895126,7.953267264775143,0.0
44.10042395868927,6.54652818830146,7.9507404381420965,0.0
44.20042596797216,6.545983624450957,7.948220801914665,0.0
44.30042797725505,6.545440837363082,7.945708319212914,0.0
44.40042998653794,6.54489981713577,7.94320295342906,0.0
44.500431995820826,6.544360553944633,7.940704668224853,0.0
44.600434005103715,6.5438230380421745,7.938213427528986,0.0
44.700436014386604,6.543287259757018,7.9357291955345435,0.0
44.80043802366949,6.542753209493139,7.933251936696477,0.0
44.90044003295238,6.54222087772911,7.930781615729121,0.0
45.00044204223527,6.541690255017359,7.92831819760371,0.0
45.10044405151816,6.541161331983425,7.925861647545961,0.0
45.20044606080105,6.540634099325236,7.923411931033645,0.0
45.30044807008394,6.540108547812386,7.9209690137942275,0.0
45.40045007936683,6.539584668285427,7.9185328618025075,0.0
45.500452088649716,6.539062451655165,7.916103441278288,0.0
45.600454097932605,6.53854188890197,7.913680718684088,0.0
45.700456107215494,6.538022971075086,7.911264660722862,0.0
45.80045811649838,6.537505689291958,7.908855234335766,0.0
45.90046012578127,6.536990034737562,7.90645240669992,0.0
46.00046213506416,6.536475998663744,7.9040561452262335,0.0
46.10046414434705,6.535963572388568,7.90166641755723,0.0
46.20046615362994,6.535452747295672,7.899283191564894,0.0
46.30046816291283,6.534943514833627,7.896906435348566,0.0
46.40047017219572,6.5344358665153095,7.89453611723283,0.0
46.50047218147861,6.533929793917282,7.892172205765464,0.0
46.600474190761496,6.533425288679172,7.889814669715367,0.0
46.700476200044385,6.53292234250307,7.887463478070551,0.0
46.800478209327274,6.532420947152924,7.885118600036135,0.0
46.90048021861016,6.531921094453951,7.882780005032361,0.0
47.00048222789305,6.531422776292046,7.880447662692639,0.0
47.10048423717594,6.530925984613205,7.878121542861612,0.0
47.20048624645883,6.5304307114229525,7.875801615593241,0.0
47.30048825574172,6.529936948785772,7.873487851148912,0.0
47.40049026502461,6.529444688824548,7.871180219995567,0.0
47.5004922743075,6.5289539237200165,7.868878692803845,0.0
47.600494283590386,6.528464645710211,7.866583240446266,0.0
47.700496292873275,6.527976847089929,7.864293833995406,0.0
47.800498302156164,6.527490520210192,7.862010444722113,0.0
47.90050031143905,6.527005657477722,7.859733044093746,0.0
48.00050232072194,6.526522251354417,7.857461603772403,0.0
48.10050433000483,6.526040294356836,7.855196095613209,0.0
48.20050633928772,6.525559779055686,7.852936491662593,0.0
48.30050834857061,6.525080698075323,7.850682764156595,0.0
48.4005103578535,6.524603044093247,7.848434885519197,0.0
48.50051236713639,6.524126809839616,7.846192828360655,0.0
48.60051437641928,6.523651988096751,7.843956565475866,0.0
48.700516385702166,6.523178571698662,7.841726069842748,0.0
48.800518394985055,6.522706553530565,7.839501314620634,0.0
48.900520404267944,6.522235926528413,7.837282273148675,0.0
49.00052241355083,6.521766683678434,7.835068918944293,0.0
49.10052442283372,6.521298818016665,7.832861225701608,0.0
49.20052643211661,6.520832322628498,7.830659167289907,0.0
49.3005284413995,6.520367190648233,7.828462717752133,0.0
49.40053045068239,6.519903415258628,7.8262718513033676,0.0
49.50053245996528,6.519440989690462,7.824086542329351,0.0
49.60053446924817,6.5189799072221,7.821906765385014,0.0
49.700536478531056,6.518520161179057,7.819732495193017,0.0
49.800538487813945,6.51806174493358,7.817563706642307,0.0
49.900540497096834,6.51760465190422,7.815400374786696,0.0
50.00054250637972,6.51714887555542,7.813242474843451,0.0
50.10054451566261,6.5166944093971,7.811089982191898,0.0
50.2005465249455,6.516241246984253,7.8089428723720395,0.0
50.30054853422839,6.515789381916538,7.80680112108319,0.0
50.40055054351128,6.5153388078378836,7.804664704182624,0.0
50.50055255279417,6.514889518436094,7.802533597684233,0.0
50.60055456207706,6.514441507442458,7.800407777757211,0.0
50.70055657135995,6.513994768631366,7.798287220724738,0.0
50.800558580642836,6.513549295819923,7.7961719030626835,0.0
50.900560589925725,6.513105082867576,7.794061801398323,0.0
51.000562599208614,6.512662123675741,7.791956892509075,0.0
51.1005646084915,6.512220412187431,7.789857153321234,0.0
51.20056661777439,6.511779942386889,7.787762560908735,0.0
51.30056862705728,6.511340708299233,7.785673092491914,0.0
51.40057063634017,6.510902703990092,7.783588725436301,0.0
51.50057264562306,6.510465923565255,7.781509437251403,0.0
51.60057465490595,6.510030361170324,7.779435205589518,0.0
51.70057666418884,6.509596010990362,7.777366008244549,0.0
51.800578673471726,6.509162867249552,7.775301823150842,0.0
51.900580682754615,6.508730924210863,7.773242628382016,0.0
52.000582692037504,6.508300176175709,7.771188402149832,0.0
52.10058470132039,6.507870617483618,7.769139122803038,0.0
52.20058671060328,6.507442242511907,7.7670947688262775,0.0
52.30058871988617,6.507015045675354,7.765055318838948,0.0
52.40059072916906,6.506589021425878,7.763020751594121,0.0
52.50059273845195,6.506164164252221,7.760991045977438,0.0
52.60059474773484,6.505740468679631,7.758966181006043,0.0
52.70059675701773,6.505317929269556,7.756946135827514,0.0
52.80059876630062,6.504896540619329,7.754930889718802,0.0
52.900600775583506,6.504476297361868,7.752920422085188,0.0
53.000602784866395,6.504057194165371,7.750914712459245,0.0
53.100604794149284,6.503639225733021,7.748913740499818,0.0
53.20060680343217,6.503222386802687,7.746917485990993,0.0
53.30060881271506,6.502806672146632,7.744925928841125,0.0
53.40061082199795,6.502392076571225,7.742939049081798,0.0
53.50061283128084,6.501978594916655,7.740956826866876,0.0
53.60061484056373,6.501566222056642,7.738979242471512,0.0
53.70061684984662,6.5011549528981645,7.737006276291181,0.0
53.80061885912951,6.500744782381175,7.735037908840733,0.0
53.900620868412396,6.500335705478328,7.733074120753431,0.0
54.000622877695285,6.499927717194708,7.731114892780024,0.0
54.100624886978174,6.499520812567558,7.729160205787814,0.0
54.20062689626106,6.499114986666015,7.727210040759738,0.0
54.30062890554395,6.498710234590846,7.725264378793462,0.0
54.40063091482684,6.498306551474185,7.723323201100463,0.0
54.50063292410973,6.497903932479275,7.721386489005152,0.0
54.60063493339262,6.497502372800212,7.719454223943979,0.0
54.70063694267551,6.497101867661692,7.717526387464563,0.0
54.8006389519584,6.496702412318759,7.7156029612248265,0.0
54.90064096124129,6.496304002056559,7.713683926992124,0.0
55.000642970524176,6.49590663219009,7.711769266642403,0.0
55.100644979807065,6.495510298063963,7.709858962159357,0.0
55.200646989089954,6.495114995052157,7.707952995633585,0.0
55.30064899837284,6.494720718557783,7.7060513492617755,0.0
55.40065100765573,6.494327464012847,7.704154005345883,0.0
55.50065301693862,6.493935226878015,7.702260946292309,0.0
55.60065502622151,6.493544002642381,7.700372154611106,0.0
55.7006570355044,6.493153786823243,7.698487612915184,0.0
55.80065904478729,6.492764574965869,7.6966073039195155,0.0
55.90066105407018,6.492376362643273,7.694731210440354,0.0
56.000663063353066,6.491989145455998,7.692859315394472,0.0
56.100665072635955,6.491602919031889,7.690991601798379,0.0
56.200667081918844,6.49121767902588,7.68912805276757,0.0
56.30066909120173,6.490833421119772,7.687268651515778,0.0
56.40067110048462,6.490450141022025,7.6854133813542145,0.0
56.50067310976751,6.490067834467543,7.683562225690849,0.0
56.6006751190504,6.4896864972174635,7.681715168029674,0.0
56.70067712833329,6.48930612505895,7.679872191969956,0.0
56.80067913761618,6.488926713804988,7.678033281205561,0.0
56.90068114689907,6.488548259294179,7.676198419524209,0.0
57.00068315618196,6.48817075739054,7.674367590806783,0.0
57.100685165464846,6.487794203983301,7.672540779026626,0.0
57.200687174747735,6.487418594986712,7.670717968248859,0.0
