Time,Mass,Radius,Lx
23.0,53.47334005120631,8.74,0.0
33.014084507042256,53.46552373346524,8.739191405297468,0.0
43.02816901408451,53.45770830528639,8.738382859231958,0.0
53.04225352112677,53.44989376659648,8.737574361802036,0.0
63.05633802816902,53.442080117322256,8.736765913006263,0.0
73.07042253521128,53.434267357390446,8.735957512843202,0.0
83.08450704225353,53.4264554867278,8.73514916131142,0.0
93.09859154929579,53.41864450526105,8.734340858409476,0.0
103.11267605633805,53.410834412916955,8.73353260413594,0.0
113.1267605633803,53.403025209622264,8.73272439848937,0.0
123.14084507042256,53.39521689530373,8.731916241468333,0.0
133.1549295774648,53.38740946988813,8.731108133071391,0.0
143.16901408450704,53.3796029333022,8.73030007329711,0.0
153.18309859154928,53.37179728547273,8.72949206214405,0.0
163.19718309859152,53.36399252632649,8.72868409961078,0.0
173.21126760563376,53.35618865579025,8.727876185695859,0.0
183.225352112676,53.348385673790794,8.727068320397855,0.0
193.23943661971825,53.3405835802549,8.726260503715327,0.0
203.2535211267605,53.33278237510936,8.725452735646842,0.0
213.26760563380273,53.324982058280966,8.724645016190964,0.0
223.28169014084497,53.31718262969652,8.723837345346258,0.0
233.2957746478872,53.30938408928281,8.723029723111283,0.0
243.30985915492946,53.301633234899114,8.72222699630044,0.0
253.3239436619717,53.2945113208483,8.721489368696224,0.0
263.33802816901397,53.2881054301006,8.720825869816963,0.0
273.3521126760562,53.28232001468142,8.720226612353846,0.0
283.36619718309845,53.27707519338139,8.71968332937354,0.0
293.3802816901407,53.272303737740096,8.719189062754166,0.0
303.39436619718293,53.267948717827146,8.718737919786985,0.0
313.4084507042252,53.26396164700452,8.718324881339145,0.0
323.4225352112674,53.26030100779539,8.717945649404001,0.0
333.43661971830966,53.25693107152008,8.717596525017209,0.0
343.4507042253519,53.25382094632883,8.71727430978487,0.0
353.46478873239414,53.25094380424066,8.716976225920053,0.0
363.4788732394364,53.24827624953988,8.716699850896832,0.0
373.4929577464786,53.2457977995938,8.716443063730846,0.0
383.50704225352086,53.24349045567713,8.71620400056928,0.0
393.5211267605631,53.24133834631224,8.71598101778186,0.0
403.53521126760535,53.239327429381966,8.715772661131869,0.0
413.5492957746476,53.23744524214508,8.715577639903014,0.0
423.56338028168983,53.235680690503536,8.715394805087556,0.0
433.5774647887321,53.23402387059622,8.715223130919334,0.0
443.5915492957743,53.23246591714404,8.715061699175045,0.0
453.60563380281656,53.23099887403436,8.71490968577698,0.0
463.6197183098588,53.22961558347444,8.714766349317541,0.0
473.63380281690104,53.22830959071406,8.714631021195133,0.0
483.6478873239433,53.22707506187404,8.714503097106567,0.0
493.6619718309855,53.225906712848925,8.714382029685755,0.0
503.67605633802776,53.224799747601374,8.714267322114559,0.0
513.69014084507,53.2237498044489,8.714158522561007,0.0
523.7042253521123,53.222752909175,8.714055219323997,0.0
533.7183098591546,53.22180543398602,8.713957036583166,0.0
543.7323943661969,53.220904061490835,8.713863630668799,0.0
553.7464788732392,53.22004575300904,8.713774686779884,0.0
563.7605633802815,53.21922772062,8.713689916089477,0.0
573.7746478873238,53.21844740245356,8.713609053185719,0.0
583.7887323943661,53.21770244079753,8.71353185380452,0.0
593.8028169014084,53.21699066265859,8.713458092816277,0.0
603.8169014084507,53.21631006246575,8.713387562434464,0.0
613.830985915493,53.215658786649094,8.713320070618407,0.0
623.8450704225353,53.21503511986356,8.713255439646414,0.0
633.8591549295776,53.21443747265928,8.713193504838708,0.0
643.8732394366199,53.21386437042628,8.71313411341234,0.0
653.8873239436622,53.21331444346445,8.713077123452615,0.0
663.9014084507045,53.212786418048935,8.71302240298765,0.0
673.9154929577468,53.21227910837796,8.712969829154277,0.0
683.9295774647891,53.21179140930417,8.712919287445121,0.0
693.9436619718314,53.211322289763125,8.712870671027892,0.0
703.9577464788737,53.21087078682314,8.712823880128994,0.0
713.971830985916,53.210436000289775,8.712778821474625,0.0
723.9859154929583,53.21001708780628,8.712735407783214,0.0
734.0000000000006,53.209613260398434,8.712693557303908,0.0
744.0140845070429,53.20922377841784,8.712653193396314,0.0
754.0281690140852,53.20884794784332,8.712614244147352,0.0
764.0422535211275,53.208485116904534,8.712576642021467,0.0
774.0563380281698,53.20813467299588,8.712540323540923,0.0
784.0704225352121,53.20779603985239,8.712505228993223,0.0
794.0845070422544,53.20746867496229,8.712471302163067,0.0
804.0985915492967,53.20715206719381,8.712438490086468,0.0
814.112676056339,53.20684573461591,8.712406742824996,0.0
824.1267605633813,53.206549222495106,8.71237601325823,0.0
834.1408450704236,53.206262101452054,8.712346256892785,0.0
844.1549295774659,53.205983965763515,8.712317431686376,0.0
854.1690140845081,53.20571443179662,8.712289497885614,0.0
864.1830985915504,53.20545313656374,8.712262417876271,0.0
874.1971830985927,53.205199736387335,8.71223615604496,0.0
884.211267605635,53.204953905665356,8.71221067865121,0.0
894.2253521126773,53.20471533572851,8.712185953709081,0.0
904.2394366197196,53.20448373378162,8.71216195087747,0.0
914.2535211267619,53.20425882192209,8.712138641358415,0.0
924.2676056338042,53.204040336228985,8.712115997802725,0.0
934.2816901408465,53.2038280259171,8.712093994222318,0.0
944.2957746478888,53.20362165255053,8.712072605908755,0.0
954.3098591549311,53.2034209893112,8.712051809357428,0.0
964.3239436619734,53.20322582031778,8.712031582197012,0.0
974.3380281690157,53.20303593999122,8.712011903123711,0.0
984.352112676058,53.20285115246306,8.711992751839965,0.0
994.3661971831003,53.202671271023476,8.711974108997245,0.0
1004.3802816901426,53.202495966294926,8.711955940460822,0.0
1014.3943661971849,53.20232345413489,8.711938061324016,0.0
1024.408450704227,53.20215338701843,8.711920435570365,0.0
1034.4225352112694,53.20198570680067,8.711903057174611,0.0
1044.4366197183117,53.2018203572666,8.711885920311476,0.0
1054.450704225354,53.20165728404918,8.711869019347166,0.0
1064.4647887323963,53.20149643455174,8.711852348831329,0.0
1074.4788732394386,53.20133775787427,8.711835903489423,0.0
1084.492957746481,53.201181204743456,8.711819678215464,0.0
1094.5070422535232,53.20102672744624,8.711803668065146,0.0
1104.5211267605655,53.200874279766644,8.711787868249287,0.0
1114.5352112676078,53.2007238169257,8.71177227412761,0.0
1124.54929577465,53.20057529552434,8.711756881202826,0.0
1134.5633802816924,53.20042867348898,8.711741685114992,0.0
1144.5774647887347,53.200283910019785,8.711726681636156,0.0
1154.591549295777,53.20014096554132,8.711711866665238,0.0
1164.6056338028193,53.19999980165557,8.711697236223165,0.0
1174.6197183098616,53.199860381097096,8.71168278644822,0.0
1184.6338028169039,53.19972266769033,8.711668513591627,0.0
1194.6478873239462,53.199586626308786,8.711654414013315,0.0
1204.6619718309885,53.199452222836115,8.711640484177885,0.0
1214.6760563380308,53.199319424128966,8.711626720650765,0.0
1224.690140845073,53.19918819798144,8.71161312009452,0.0
1234.7042253521154,53.19905851309118,8.71159967926535,0.0
1244.7183098591577,53.198930339026916,8.71158639500971,0.0
1254.7323943662,53.19880364619744,8.711573264261117,0.0
1264.7464788732423,53.19867840582193,8.711560284037052,0.0
1274.7605633802846,53.19855458990151,8.711547451436028,0.0
1284.7746478873269,53.1984321711921,8.711534763634775,0.0
1294.7887323943692,53.19831112317832,8.71152221788553,0.0
1304.8028169014115,53.19819142004855,8.711509811513462,0.0
1314.8169014084538,53.198073036671026,8.71149754191418,0.0
1324.830985915496,53.197955948570886,8.711485406551375,0.0
1334.8450704225384,53.19784013190821,8.711473402954526,0.0
1344.8591549295807,53.197725563456885,8.71146152871672,0.0
1354.873239436623,53.197612220584396,8.711449781492556,0.0
1364.8873239436653,53.19750008123239,8.711438158996131,0.0
1374.9014084507075,53.19738912389801,8.711426658999102,0.0
1384.9154929577498,53.19727932761598,8.711415279328836,0.0
1394.9295774647921,53.19717067194138,8.71140401786662,0.0
1404.9436619718344,53.1970631369331,8.711392872545952,0.0
1414.9577464788767,53.196956703137964,8.711381841350889,0.0
1424.971830985919,53.19685135157538,8.71137092231446,0.0
1434.9859154929613,53.19674706372268,8.711360113517149,0.0
1445.0000000000036,53.196643821500935,8.71134941308542,0.0
1455.014084507046,53.196541607261324,8.711338819190313,0.0
1465.0281690140882,53.19644040377205,8.711328330046076,0.0
1475.0422535211305,53.1963401942057,8.711317943908865,0.0
1485.0563380281728,53.19624096212707,8.711307659075478,0.0
1495.0704225352151,53.196142691481455,8.711297473882146,0.0
1505.0845070422574,53.19604536658337,8.711287386703356,0.0
1515.0985915492997,53.19594897210565,8.71127739595073,0.0
1525.112676056342,53.19585349306895,8.711267500071937,0.0
1535.1267605633843,53.19575891483167,8.711257697549636,0.0
1545.1408450704266,53.195665223080134,8.711247986900474,0.0
1555.154929577469,53.195572403819206,8.71123836667411,0.0
1565.1690140845112,53.1954804433632,8.711228835452266,0.0
1575.1830985915535,53.19538932832711,8.711219391847822,0.0
1585.1971830985958,53.195299045618114,8.71121003450394,0.0
1595.211267605638,53.19520958242743,8.711200762093217,0.0
1605.2253521126804,53.19512092622239,8.711191573316855,0.0
1615.2394366197227,53.19503306473881,8.71118246690389,0.0
1625.253521126765,53.19494598597363,8.711173441610411,0.0
1635.2676056338073,53.19485967817778,8.711164496218828,0.0
1645.2816901408496,53.19477412984925,8.711155629537155,0.0
1655.295774647892,53.19468932972648,8.711146840398321,0.0
1665.3098591549342,53.19460526678187,8.711138127659503,0.0
1675.3239436619765,53.194521930215586,8.711129490201479,0.0
1685.3380281690188,53.194439309449486,8.711120926928002,0.0
1695.352112676061,53.194357394121305,8.711112436765195,0.0
1705.3661971831034,53.19427617407899,8.711104018660967,0.0
1715.3802816901457,53.19419563937526,8.711095671584442,0.0
1725.394366197188,53.19411578026225,8.711087394525418,0.0
1735.4084507042303,53.194036587186446,8.711079186493826,0.0
1745.4225352112726,53.193958050783664,8.711071046519221,0.0
1755.436619718315,53.19388016187427,8.71106297365028,0.0
1765.4507042253572,53.19380291145848,8.71105496695432,0.0
1775.4647887323995,53.193726290711865,8.71104702551683,0.0
1785.4788732394418,53.19365029098097,8.711039148441017,0.0
1795.492957746484,53.19357490377903,8.71103133484736,0.0
1805.5070422535264,53.193500120781884,8.71102358387319,0.0
1815.5211267605687,53.19342593382396,8.711015894672277,0.0
1825.535211267611,53.1933523348944,8.711008266414414,0.0
1835.5492957746533,53.1932793161333,8.711000698285044,0.0
1845.5633802816956,53.19320686982806,8.710993189484878,0.0
1855.5774647887379,53.19313498840984,8.710985739229518,0.0
1865.5915492957802,53.19306366445011,8.71097834674911,0.0
1875.6056338028225,53.19299289065732,8.710971011287997,0.0
1885.6197183098648,53.19292265987368,8.710963732104378,0.0
1895.633802816907,53.19285296507196,8.71095650846999,0.0
1905.6478873239494,53.19278379935247,8.710949339669778,0.0
1915.6619718309917,53.19271515594009,8.710942225001606,0.0
1925.676056338034,53.19264702818137,8.710935163775938,0.0
1935.6901408450763,53.192579409541715,8.71092815531556,0.0
1945.7042253521186,53.19251229360268,8.710921198955296,0.0
1955.7183098591609,53.192445674059314,8.710914294041723,0.0
1965.7323943662032,53.192379544717575,8.710907439932926,0.0
1975.7464788732455,53.192313899491836,8.710900635998211,0.0
1985.7605633802877,53.19224873240243,8.710893881617874,0.0
1995.77464788733,53.19218403757331,8.710887176182945,0.0
2005.7887323943723,53.192119809229716,8.71088051909495,0.0
2015.8028169014146,53.19205604169595,8.710873909765686,0.0
2025.816901408457,53.19199272939318,8.710867347616983,0.0
2035.8309859154992,53.191929866837334,8.710860832080494,0.0
2045.8450704225415,53.191867448637026,8.710854362597477,0.0
2055.859154929584,53.191805469491534,8.710847938618583,0.0
2065.873239436626,53.19174392418885,8.710841559603661,0.0
2075.8873239436684,53.191682807603776,8.710835225021555,0.0
2085.9014084507107,53.191622114696074,8.71082893434991,0.0
2095.915492957753,53.19156184050863,8.71082268707499,0.0
2105.9295774647953,53.19150198016573,8.710816482691492,0.0
2115.9436619718376,53.19144252887131,8.710810320702366,0.0
2125.95774647888,53.1913834819073,8.710804200618652,0.0
2135.971830985922,53.191324834632,8.710798121959295,0.0
2145.9859154929645,53.191266582478484,8.710792084250995,0.0
2156.000000000007,53.19120872095305,8.710786087028039,0.0
2166.014084507049,53.19115124563372,8.710780129832145,0.0
2176.0281690140914,53.19109415216876,8.710774212212312,0.0
2186.0422535211337,53.19103743627526,8.710768333724676,0.0
2196.056338028176,53.190981093737726,8.710762493932352,0.0
2206.0704225352183,53.19092512040672,8.710756692405303,0.0
2216.0845070422606,53.190869512197516,8.7107509287202,0.0
2226.098591549303,53.19081426508883,8.710745202460291,0.0
2236.112676056345,53.190759375121544,8.710739513215259,0.0
2246.1267605633875,53.19070483839745,8.710733860581104,0.0
2256.14084507043,53.19065065107808,8.710728244160022,0.0
2266.154929577472,53.19059680938351,8.710722663560263,0.0
2276.1690140845144,53.1905433095912,8.710717118396039,0.0
2286.1830985915567,53.19049014803492,8.710711608287385,0.0
2296.197183098599,53.190437321103595,8.71070613286006,0.0
2306.2112676056413,53.190384825240294,8.710700691745432,0.0
2316.2253521126836,53.190332656941145,8.710695284580366,0.0
2326.239436619726,53.19028081275435,8.710689911007124,0.0
2336.253521126768,53.19022928927917,8.710684570673262,0.0
2346.2676056338105,53.19017808316496,8.710679263231526,0.0
2356.281690140853,53.190127191110214,8.710673988339753,0.0
2366.295774647895,53.19007660986166,8.710668745660781,0.0
2376.3098591549374,53.19002633621334,8.710663534862348,0.0
2386.3239436619797,53.18997636700571,8.710658355617008,0.0
2396.338028169022,53.18992669912481,8.710653207602032,0.0
2406.3521126760643,53.18987732950139,8.71064809049933,0.0
2416.3661971831066,53.18982825511011,8.71064300399536,0.0
2426.380281690149,53.189779472968695,8.710637947781043,0.0
2436.394366197191,53.18973098013719,8.710632921551689,0.0
2446.4084507042335,53.18968277371717,8.710627925006905,0.0
2456.4225352112758,53.18963485085098,8.71062295785053,0.0
2466.436619718318,53.189587208720994,8.71061801979055,0.0
2476.4507042253604,53.18953984454892,8.710613110539024,0.0
2486.4647887324027,53.18949275559506,8.710608229812015,0.0
2496.478873239445,53.18944593915766,8.710603377329514,0.0
2506.4929577464873,53.18939939257219,8.710598552815375,0.0
2516.5070422535296,53.18935311321073,8.710593755997241,0.0
2526.521126760572,53.18930709848127,8.71058898660648,0.0
2536.535211267614,53.18926134582715,8.71058424437812,0.0
2546.5492957746565,53.189215852726356,8.710579529050786,0.0
2556.5633802816988,53.189170616691,8.71057484036663,0.0
2566.577464788741,53.18912563526666,8.710570178071283,0.0
2576.5915492957834,53.189080906031855,8.710565541913779,0.0
2586.6056338028257,53.18903642659742,8.710560931646512,0.0
2596.619718309868,53.188992194605994,8.710556347025163,0.0
2606.6338028169102,53.18894820773147,8.710551787808656,0.0
2616.6478873239525,53.18890446367845,8.710547253759099,0.0
2626.661971830995,53.18886096018172,8.710542744641726,0.0
2636.676056338037,53.188817695005774,8.710538260224848,0.0
2646.6901408450794,53.18877466594426,8.710533800279803,0.0
2656.7042253521217,53.18873187081953,8.710529364580898,0.0
2666.718309859164,53.18868930748216,8.710524952905367,0.0
2676.7323943662063,53.18864697381044,8.710520565033319,0.0
2686.7464788732486,53.188604867709984,8.710516200747689,0.0
2696.760563380291,53.1885629871132,8.710511859834195,0.0
2706.7746478873332,53.188521329978904,8.710507542081288,0.0
2716.7887323943755,53.18847989429186,8.710503247280108,0.0
2726.802816901418,53.18843867806237,8.710498975224446,0.0
2736.81690140846,53.188397679325846,8.710494725710689,0.0
2746.8309859155024,53.188356896142416,8.710490498537789,0.0
2756.8450704225447,53.188316326596514,8.710486293507216,0.0
2766.859154929587,53.18827596879648,8.710482110422921,0.0
2776.8732394366293,53.188235820874205,8.71047794909129,0.0
2786.8873239436716,53.18819588098472,8.71047380932111,0.0
2796.901408450714,53.18815614730586,8.710469690923533,0.0
2806.915492957756,53.188116618037874,8.710465593712032,0.0
2816.9295774647985,53.188077291403076,8.710461517502367,0.0
2826.943661971841,53.18803816564551,8.710457462112547,0.0
2836.957746478883,53.1879992390306,8.710453427362804,0.0
2846.9718309859254,53.18796050984482,8.710449413075546,0.0
2856.9859154929677,53.18792197639536,8.710445419075327,0.0
2867.00000000001,53.1878836370098,8.71044144518882,0.0
2877.0140845070523,53.1878454900358,8.710437491244774,0.0
2887.0281690140946,53.18780753384079,8.710433557073987,0.0
2897.042253521137,53.18776976681167,8.710429642509277,0.0
2907.056338028179,53.187732187354506,8.710425747385449,0.0
2917.0704225352215,53.18769479389423,8.710421871539259,0.0
2927.084507042264,53.187657584874366,8.710418014809395,0.0
2937.098591549306,53.18762055875674,8.710414177036439,0.0
2947.1126760563484,53.187583714021216,8.71041035806284,0.0
2957.1267605633907,53.187547049165396,8.710406557732892,0.0
2967.140845070433,53.18751056270438,8.710402775892694,0.0
2977.1549295774753,53.18747425317049,8.71039901239014,0.0
2987.1690140845176,53.18743811911303,8.710395267074874,0.0
2997.18309859156,53.187402159098006,8.710391539798277,0.0
3007.197183098602,53.1873663717079,8.710387830413435,0.0
3017.2112676056445,53.187330755541424,8.710384138775117,0.0
3027.225352112687,53.18729530921327,8.710380464739748,0.0
3037.239436619729,53.18726003135389,8.710376808165385,0.0
3047.2535211267714,53.187224920609246,8.710373168911698,0.0
3057.2676056338137,53.187189975640614,8.710369546839935,0.0
3067.281690140856,53.187155195124326,8.710365941812913,0.0
3077.2957746478983,53.187120577751585,8.710362353694984,0.0
3087.3098591549406,53.18708612222822,8.710358782352019,0.0
3097.323943661983,53.1870518272745,8.710355227651386,0.0
3107.338028169025,53.18701769162491,8.710351689461922,0.0
3117.3521126760675,53.18698371402796,8.710348167653923,0.0
3127.3661971831098,53.18694989324598,8.710344662099113,0.0
3137.380281690152,53.18691622805492,8.710341172670631,0.0
3147.3943661971944,53.18688271724416,8.710337699243007,0.0
3157.4084507042367,53.186849359616325,8.710334241692141,0.0
3167.422535211279,53.186816153987095,8.71033079989529,0.0
3177.4366197183213,53.18678309918502,8.710327373731042,0.0
3187.4507042253636,53.186750194051335,8.7103239630793,0.0
3197.464788732406,53.1867174374398,8.710320567821265,0.0
3207.478873239448,53.186684828216514,8.710317187839419,0.0
3217.4929577464904,53.18665236525973,8.7103138230175,0.0
3227.5070422535327,53.18662004745973,8.710310473240497,0.0
3237.521126760575,53.186587873718615,8.71030713839462,0.0
3247.5352112676173,53.186555842950156,8.71030381836729,0.0
3257.5492957746596,53.18652395407965,8.710300513047123,0.0
3267.563380281702,53.18649220604374,8.710297222323911,0.0
3277.5774647887442,53.18646059779029,8.710293946088607,0.0
3287.5915492957865,53.18642912827819,8.710290684233309,0.0
3297.605633802829,53.18639779647726,8.710287436651246,0.0
3307.619718309871,53.18636660136804,8.71028420323676,0.0
3317.6338028169134,53.186335541941716,8.710280983885294,0.0
3327.6478873239557,53.186304617199916,8.710277778493376,0.0
3337.661971830998,53.18627382615461,8.710274586958604,0.0
3347.6760563380403,53.18624316782795,8.71027140917963,0.0
3357.6901408450826,53.18621264125216,8.710268245056152,0.0
3367.704225352125,53.18618224546936,8.710265094488893,0.0
3377.718309859167,53.18615197953149,8.710261957379593,0.0
3387.7323943662095,53.18612184250012,8.710258833630993,0.0
3397.746478873252,53.18609183344639,8.71025572314682,0.0
3407.760563380294,53.18606195145083,8.710252625831783,0.0
3417.7746478873364,53.186032195603275,8.710249541591546,0.0
3427.7887323943787,53.1860025650027,8.710246470332724,0.0
3437.802816901421,53.18597305875716,8.710243411962876,0.0
