Time,Mass,Radius,Lx
23.0,32.763096042130094,6.41,1.3e+30
33.0,32.71179476226235,6.403645679817055,1.3e+30
43.0,32.660558106531894,6.397295711850878,1.3e+30
53.0,32.6093860115757,6.390950094237587,1.3e+30
63.0,32.558278414078835,6.38460882511394,1.3e+30
73.0,32.50723525077442,6.3782719026173345,1.3e+30
83.0,32.45625645844362,6.371939324885809,1.3e+30
93.0,32.40534197391558,6.365611090058038,1.3e+30
103.0,32.35449173406743,6.359287196273335,1.3e+30
113.0,32.30370567582422,6.3529676416716505,1.3e+30
123.0,32.252983736158896,6.346652424393575,1.3e+30
133.0,32.202325852092294,6.340341542580333,1.3e+30
143.0,32.15173196069308,6.334034994373787,1.3e+30
153.0,32.101201999077716,6.3277327779164345,1.3e+30
163.0,32.05073590441046,6.32143489135141,1.3e+30
173.0,32.000333613903294,6.315141332822482,1.3e+30
183.0,31.949995064815923,6.308852100474055,1.3e+30
193.0,31.89972019445573,6.302567192451166,1.3e+30
203.0,31.84950894017774,6.296286606899489,1.3e+30
213.0,31.799361239384602,6.290010341965329,1.3e+30
223.0,31.749277029526553,6.283738395795626,1.3e+30
233.0,31.699256248101378,6.277470766537952,1.3e+30
243.0,31.64957119657124,6.271241609273895,1.2541429960944086e+30
253.0,31.603837729363903,6.26550469991761,1.1161325563380528e+30
263.0,31.562743385665218,6.260347132691917,9.97809074940249e+29
273.0,31.525662915124432,6.255691212708177,8.957679812813632e+29
283.0,31.4920746987153,6.251472053711213,8.072895134077068e+29
293.0,31.461540582835664,6.247635099659726,7.301829367428829e+29
303.0,31.433690180910762,6.244134192152582,6.626700397277004e+29
313.0,31.408208540096243,6.240930049819516,6.032970956671398e+29
323.0,31.384826368789806,6.237989061776454,5.5086769046970675e+29
333.0,31.363312231528386,6.235282322762688,5.043910073372929e+29
343.0,31.34346626883033,6.2327848558906025,4.630416749157489e+29
353.0,31.325115108878457,6.230474982229147,4.261283462807125e+29
363.0,31.3081077179601,6.2283338061887,3.930689272855705e+29
373.0,31.292311995727424,6.226344792892085,3.633709103718077e+29
383.0,31.277611965468083,6.224493419110057,3.366156585469188e+29
393.0,31.263905442785735,6.222766883405022,3.1244576782043998e+29
403.0,31.251102091289216,6.221153864216101,2.905548451886703e+29
413.0,31.239121793159235,6.219644316984271,2.7067919429518936e+29
423.0,31.22789327730576,6.218229303240949,2.525910169315647e+29
433.0,31.21735295934368,6.216900846000324,2.360928260490253e+29
443.0,31.207443956604877,6.215651806903374,2.2101283241690305e+29
453.0,31.198115248468593,6.214475781432599,2.0720111789165917e+29
463.0,31.189320957874678,6.21336700920565,1.9452644738276307e+29
473.0,31.181019734321875,6.212320296904299,1.82873601900731e+29
483.0,31.173174222199133,6.211330951833678,1.721411386767247e+29
493.0,31.165750601146197,6.210394724459204,1.6223950283521205e+29
503.0,31.158718187438687,6.2095077585533245,1.5308942966642789e+29
513.0,31.152049087257208,6.208666547815313,1.446205880767346e+29
523.0,31.145717894218713,6.207867898015654,1.3677042496945083e+29
533.0,31.139701424790797,6.20710889387079,1.2948317764253073e+29
543.0,31.133978486230188,6.206386869980701,1.227090271785195e+29
553.0,31.12852967252848,6.205699385266426,1.1640337055170188e+29
563.0,31.123337184544916,6.205044200431188,1.1052619302383796e+29
573.0,31.118384671085096,6.204419258040876,1.0504152552757598e+29
583.0,31.11365708816714,6.203822664879667,9.991697428971188e+28
593.0,31.109140574120826,6.203252676286854,9.512331203827561e+28
603.0,31.1048223385041,6.202707682223213,9.063412185746676e+28
613.0,31.100690563106934,6.202186194850759,8.64254861737127e+28
623.0,31.096734313553387,6.201686837439805,8.247571453110657e+28
633.0,31.092943460217057,6.201208334442747,7.876510479037928e+28
643.0,31.089308607338406,6.200749502595541,7.527573319863957e+28
653.0,31.085821029380245,6.200309242926383,7.199126945658474e+28
663.0,31.082472613783747,6.1998865335667395,6.889681347935927e+28
673.0,31.079255809395356,6.1994804232734655,6.597875102587363e+28
683.0,31.076163579927655,6.19909002558224,6.32246257747833e+28
693.0,31.073189361896983,6.198714513522571,6.06230257662003e+28
703.0,31.07032702654934,6.198353114833187,5.816348241699602e+28
713.0,31.06757084534559,6.198005107624076,5.583638056282218e+28
723.0,31.064915458628352,6.1976698164378545,5.363287818879153e+28
733.0,31.062355847137766,6.197346608668762,5.154483468895384e+28
743.0,31.059887306082043,6.197034891302421,4.956474664711537e+28
753.0,31.05750542150267,6.196734107943726,4.768569026219922e+28
763.0,31.055206048703685,6.196443736103985,4.590126965357968e+28
773.0,31.052985292540278,6.19616328472159,4.4205570378441805e+28
783.0,31.050839489384643,6.195892291893407,4.259311757656206e+28
793.0,31.048765190606982,6.195630322796543,4.105883822994243e+28
803.0,31.046759147426965,6.19537696778232,3.959802708711313e+28
813.0,31.044818297006458,6.195131840626249,3.8206315856044065e+28
823.0,31.042939749667905,6.194894576919508,3.687964531665052e+28
833.0,31.041120777134772,6.194664832588875,3.5614240044844747e+28
843.0,31.03935880170115,6.1944422825335055,3.4406585475817872e+28
853.0,31.037651386247017,6.194226619368028,3.3253407065459103e+28
863.0,31.035996225024054,6.19401755226254,3.2151651336144923e+28
873.0,31.034391135144396,6.193814805871012,3.109846861708507e+28
883.0,31.0328340487113,6.193618119340431,3.0091197310443923e+28
893.0,31.031323005536635,6.19342724539375,2.9127349532950263e+28
903.0,31.029856146395403,6.193241949480418,2.8204597998995407e+28
913.0,31.028431706772253,6.193062008988793,2.7320764025584943e+28
923.0,31.02704801105909,6.192887212515317,2.647380655219643e+28
933.0,31.025703467166792,6.192717359185811,2.566181207981722e+28
943.0,31.02439656151733,6.192552258024633,2.488298544337532e+28
953.0,31.023125854385786,6.192391727367874,2.4135641340590457e+28
963.0,31.021889975564342,6.192235594317093,2.34181965481001e+28
973.0,31.02068762032299,6.192083694230381,2.2729162762675017e+28
983.0,31.019517545643758,6.191935870247879,2.206714001153521e+28
993.0,31.01837856670738,6.191791972849064,2.1430810581300393e+28
1003.0,31.01726889754264,6.191651776550496,2.090081135351165e+28
1013.0,31.016178434724452,6.191514005000133,2.057564507998924e+28
1023.0,31.01510345430133,6.191378187790335,2.0258657787155107e+28
1033.0,31.014043587600284,6.191244278415222,1.9949566780668547e+28
1043.0,31.012998478198202,6.191112231913287,1.9648101746444167e+28
1053.0,31.01196778140178,6.190982004801865,1.9354004096365916e+28
1063.0,31.010951163754232,6.190853555014965,1.90670263543932e+28
1073.0,31.009948302567192,6.190726841844289,1.8786931580213176e+28
1083.0,31.008958885476243,6.190601825883217,1.851349282781836e+28
1093.0,31.007982610018736,6.1904784689736,1.824649263659377e+28
1103.0,31.007019183232554,6.190356734155199,1.7985722552685233e+28
1113.0,31.006068321274597,6.190236585617604,1.7730982678592005e+28
1123.0,31.005129749057886,6.19011798865449,1.748208124908331e+28
1133.0,31.004203199906172,6.1900009096200925,1.723883423168225e+28
1143.0,31.00328841522511,6.189885315887769,1.700106495009184e+28
1153.0,31.00238514418902,6.1897711758105025,1.6768603729058693e+28
1163.0,31.001493143442396,6.189658458683296,1.6541287559280541e+28
1173.0,31.000612176815356,6.189547134707299,1.6318959781065499e+28
1183.0,30.999742015052224,6.189437174955593,1.6101469785544454e+28
1193.0,30.998882435552595,6.1893285513405605,1.588867273232399e+28
1203.0,30.99803322212416,6.189221236582725,1.5680429282546348e+28
1213.0,30.997194164746677,6.189115204180994,1.5476605346395964e+28
1223.0,30.996365059346516,6.189010428384247,1.5277071844159233e+28
1233.0,30.995545707581208,6.188906884164171,1.5081704480006252e+28
1243.0,30.994735916633456,6.188804547189292,1.4890383527720523e+28
1253.0,30.993935499014178,6.188703393800153,1.4702993627655415e+28
1263.0,30.993144272374042,6.188603400985546,1.4519423594245204e+28
1273.0,30.992362059323135,6.188504546359783,1.433956623344352e+28
1283.0,30.99158868725829,6.188406808140927,1.41633181695041e+28
1293.0,30.990823988197743,6.188310165129945,1.3990579680557288e+28
1303.0,30.990067798622732,6.18821459669074,1.3821254542471741e+28
1313.0,30.989319959325666,6.188120082731005,1.3655249880524102e+28
1323.0,30.98858031526461,6.188026603683879,1.3492476028430196e+28
1333.0,30.987848715423713,6.187934140490351,1.333284639432007e+28
1343.0,30.987125012679332,6.187842674582376,1.3176277333265775e+28
1353.0,30.986409063671577,6.187752187866682,1.3022688025995552e+28
1363.0,30.985700728680985,6.187662662709221,1.2872000363451093e+28
1373.0,30.984999871510134,6.187574081920238,1.272413883686598e+28
1383.0,30.984306359369917,6.187486428739936,1.257903043306326e+28
1393.0,30.983620062770306,6.187399686824693,1.2436604534688825e+28
1403.0,30.982940855415343,6.187313840233834,1.2296792825114366e+28
1413.0,30.982268614102225,6.187228873416894,1.2159529197759997e+28
1423.0,30.981603218624237,6.187144771201384,1.2024749669601522e+28
1433.0,30.980944551677425,6.1870615187810225,1.1892392298641452e+28
1443.0,30.980292498770773,6.186979101704403,1.1762397105136008e+28
1453.0,30.979646948139777,6.186897505864103,1.1634705996382474e+28
1463.0,30.979007790663246,6.186816717486187,1.1509262694882854e+28
1473.0,30.978374919783196,6.186736723120104,1.1386012669710393e+28
1483.0,30.977748231427686,6.186657509628958,1.1264903070915544e+28
1493.0,30.977127623936493,6.186579064180137,1.114588266681745e+28
1503.0,30.97651299798948,6.186501374236273,1.102890178403556e+28
1513.0,30.975904256537564,6.186424427546543,1.0913912250124469e+28
1523.0,30.975301304736142,6.186348212138263,1.0800867338682597e+28
1533.0,30.97470404988092,6.186272716308809,1.0689721716812628e+28
1543.0,30.974112401345995,6.186197928617796,1.058043139481841e+28
1553.0,30.97352627052412,6.186123837879546,1.0472953678029298e+28
1563.0,30.972945570769056,6.186050433155821,1.036724712064904e+28
1573.0,30.97237021733995,6.185977703748807,1.0263271481531739e+28
1583.0,30.971800127347592,6.18590563919433,1.0160987681792809e+28
1593.0,30.971235219702553,6.185834229255322,1.0060357764167797e+28
1603.0,30.97067541506508,6.185763463915497,9.961344854036515e+27
1613.0,30.970120635796686,6.185693333373243,9.863913122034388e+27
1623.0,30.969570805913364,6.18562382803573,9.768027748177005e+27
1633.0,30.969025851040385,6.185554938513193,9.67365488742779e+27
1643.0,30.968485698368585,6.185486655613434,9.580761636642259e+27
1653.0,30.967950276612104,6.18541897033648,9.489316002825918e+27
1663.0,30.96741951596751,6.185351873869431,9.399286872645987e+27
1673.0,30.96689334807426,6.185285357581476,9.310643983140233e+27
1683.0,30.966371705976456,6.185219413019059,9.223357893569133e+27
1693.0,30.965854524085806,6.185154031901219,9.137399958360179e+27
1703.0,30.965341738145806,6.1850892061150615,9.05274230109589e+27
1713.0,30.964833285197056,6.185024927711387,8.96935778949935e+27
1723.0,30.96432910354366,6.184961188900455,8.887220011373481e+27
1733.0,30.963829132720697,6.184897982047875,8.806303251452434e+27
1743.0,30.96333331346273,6.184835299670638,8.726582469125438e+27
1753.0,30.962841587673257,6.184773134433263,8.648033276995488e+27
1763.0,30.962353898395143,6.18471147914406,8.570631920237025e+27
1773.0,30.961870189781948,6.184650326751521,8.49435525671848e+27
1783.0,30.961390407070137,6.184589670340813,8.419180737857249e+27
1793.0,30.96091449655214,6.184529503130372,8.345086390176169e+27
1803.0,30.960442405550214,6.184469818468617,8.272050797532034e+27
1813.0,30.959974082391128,6.184410609830744,8.200053083988135e+27
1823.0,30.95950947638155,6.184351870815627,8.129072897304038e+27
1833.0,30.959048537784234,6.184293595142816,8.059090393017164e+27
1843.0,30.958591217794854,6.18423577664961,7.990086219091827e+27
1853.0,30.958137468519556,6.184178409288225,7.922041501112572e+27
1863.0,30.957687242953167,6.184121487123046,7.854937827999701e+27
1873.0,30.957240494958015,6.184065004327956,7.788757238225886e+27
1883.0,30.956797179243395,6.184008955183741,7.723482206513706e+27
1893.0,30.956357251345604,6.183953334075577,7.659095630994922e+27
1903.0,30.955920667608567,6.183898135490575,7.595580820813075e+27
1913.0,30.955487385164993,6.18384335401542,7.532921484151906e+27
1923.0,30.955057361918094,6.183788984334047,7.471101716672822e+27
1933.0,30.9546305565238,6.183735021225407,7.410105990345382e+27
1943.0,30.954206928373488,6.183681459561286,7.349919142655515e+27
1953.0,30.95378643757718,6.183628294304184,7.290526366176811e+27
1963.0,30.95336904494722,6.183575520505256,7.231913198490886e+27
1973.0,30.952954711982404,6.183523133302307,7.174065512443448e+27
1983.0,30.95254340085253,6.183471127917846,7.116969506723222e+27
1993.0,30.952135074383396,6.183419499657191,7.060611696751503e+27
2003.0,30.951729696042182,6.183368243906626,7.004978905870561e+27
2013.0,30.95132722992326,6.1833173561316075,6.9500582568197e+27
2023.0,30.95092764073435,6.183266831875021,6.895837163488174e+27
2033.0,30.95053089378308,6.183216666755479,6.842303322934677e+27
2043.0,30.95013695496388,6.183166856465679,6.78944470766351e+27
2053.0,30.94974579074525,6.183117396770783,6.737249558147974e+27
2063.0,30.949357368157344,6.183068283506857,6.685706375591914e+27
2073.0,30.94897165477989,6.1830195125793495,6.634803914920715e+27
2083.0,30.948588618730422,6.182971079961604,6.584531177993409e+27
2093.0,30.94820822865283,6.182922981693408,6.534877407027916e+27
2103.0,30.947830453706203,6.182875213879595,6.485832078231711e+27
2113.0,30.94745526355394,6.1828277726886665,6.437384895630586e+27
2123.0,30.94708262835318,6.182780654351452,6.389525785088442e+27
2133.0,30.946712518744462,6.182733855159816,6.342244888511314e+27
2143.0,30.94634490584169,6.182687371465379,6.295532558229129e+27
2153.0,30.94597976122231,6.1826411996782875,6.24937935154897e+27
2163.0,30.94561705691777,6.182595336266004,6.203776025473794e+27
2173.0,30.945256765404185,6.182549777752135,6.158713531580889e+27
2183.0,30.944898859593287,6.18250452071528,6.114183011054509e+27
2193.0,30.944543312823544,6.182459561787916,6.070175789867359e+27
2203.0,30.94419009885153,6.182414897655312,6.026683374105825e+27
2213.0,30.943839191843505,6.18237052505446,5.983697445434027e+27
2223.0,30.943490566367206,6.18232644077304,5.941209856691981e+27
2233.0,30.943144197383816,6.182282641648409,5.899212627623287e+27
2243.0,30.942800060240156,6.182239124566611,5.857697940728021e+27
2253.0,30.942458130661052,6.182195886461423,5.816658137236578e+27
2263.0,30.942118384741885,6.182152924313402,5.776085713200457e+27
2273.0,30.941780798941334,6.182110235148977,5.735973315696062e+27
2283.0,30.94144535007427,6.182067816039555,5.696313739137784e+27
2293.0,30.941112015304842,6.182025664100638,5.65709992169678e+27
2303.0,30.940780772139707,6.181983776490977,5.618324941821917e+27
2313.0,30.940451598421436,6.181942150411736,5.579982014859597e+27
2323.0,30.940124472322065,6.181900783105681,5.5420644897692e+27
2333.0,30.939799372336807,6.181859671856383,5.504565845931068e+27
2343.0,30.939476277277894,6.181818813987442,5.467479690044014e+27
2353.0,30.939155166268577,6.181778206861729,5.430799753109507e+27
2363.0,30.938836018737263,6.18173784788065,5.394519887499714e+27
2373.0,30.938518814411772,6.181697734483413,5.358634064106775e+27
2383.0,30.93820353331375,6.181657864146333,5.323136369570685e+27
2393.0,30.937890155753188,6.181618234382128,5.288021003583316e+27
2403.0,30.937578662323077,6.18157884273926,5.253282276266181e+27
2413.0,30.93726903389418,6.181539686801256,5.218914605619628e+27
2423.0,30.936961251609922,6.18150076418608,5.184912515041214e+27
2433.0,30.936655296881398,6.181462072545495,5.151270630911126e+27
2443.0,30.936351151382485,6.181423609564444,5.117983680242569e+27
2453.0,30.936048797045075,6.181385372960454,5.085046488395105e+27
2463.0,30.9357482160544,6.181347360483043,5.052453976849009e+27
2473.0,30.935449390844465,6.18130956991314,5.020201161038791e+27
2483.0,30.935152304093588,6.18127199906253,4.98828314824405e+27
2493.0,30.93485693872003,6.181234645773297,4.956695135535962e+27
2503.0,30.934563277877732,6.181197507917282,4.925432407777659e+27
2513.0,30.934271304952116,6.181160583395564,4.8944903356769395e+27
2523.0,30.933981003556017,6.181123870137936,4.863864373889693e+27
2533.0,30.933692357525665,6.181087366102404,4.833550059172542e+27
2543.0,30.933405350916782,6.181051069274691,4.803543008583241e+27
2553.0,30.93311996800075,6.181014977667754,4.773838917727393e+27
2563.0,30.93283619326085,6.180979089321311,4.7444335590501514e+27
2573.0,30.93255401138861,6.180943402301378,4.7153227801715404e+27
2583.0,30.9322734072802,6.180907914699814,4.686502502264155e+27
2593.0,30.93199436603291,6.180872624633877,4.657968718471975e+27
2603.0,30.931716872941724,6.180837530245791,4.629717492369114e+27
2613.0,30.93144091349594,6.18080262970232,4.601744956457332e+27
2623.0,30.931166473375864,6.1807679211943505,4.574047310701211e+27
2633.0,30.930893538449588,6.180733402936485,4.546620821099889e+27
2643.0,30.930622094769813,6.180699073166638,4.51946181829432e+27
2653.0,30.930352128570757,6.18066493014565,4.4925666962090457e+27
2663.0,30.930083626265116,6.180630972156902,4.4659319107274855e+27
2673.0,30.929816574441084,6.1805971975059375,4.439553978399809e+27
2683.0,30.929550959859448,6.180563604520099,4.4134294751824675e+27
2693.0,30.92928676945072,6.180530191548162,4.3875550352084826e+27
2703.0,30.929023990312352,6.18049695695999,4.361927349587651e+27
2713.0,30.928762609705988,6.180463899146177,4.3365431652358174e+27
2723.0,30.92850261505477,6.180431016517718,4.3113992837324027e+27
2733.0,30.92824399394073,6.1803983075056745,4.28649256020542e+27
2743.0,30.92798673410217,6.180365770560845,4.2618199022432046e+27
2753.0,30.927730823431173,6.180333404153449,4.2373782688321333e+27
2763.0,30.927476249971097,6.18030120677281,4.213164669319616e+27
2773.0,30.927223001914157,6.180269176927056,4.1891761624016685e+27
2783.0,30.926971067599037,6.180237313142813,4.165409855134403e+27
2793.0,30.926720435508557,6.180205613964909,4.1418629019687787e+27
2803.0,30.926471094267374,6.18017407795609,4.118532503807997e+27
2813.0,30.926223032639747,6.18014270369673,4.095415907086919e+27
2823.0,30.925976239527326,6.18011148978456,4.072510402872924e+27
2833.0,30.925730703966995,6.1800804348343865,4.0498133259876243e+27
2843.0,30.925486415128752,6.180049537477834,4.0273220541488994e+27
2853.0,30.92524336231363,6.180018796363074,4.0050340071326904e+27
2863.0,30.92500153495166,6.179988210154574,3.982946645954044e+27
2873.0,30.92476092259987,6.179957777532836,3.961057472066896e+27
2883.0,30.924521514940313,6.179927497194162,3.939364026582101e+27
2893.0,30.92428330177816,6.179897367850398,3.917863889503228e+27
2903.0,30.9240462730398,6.179867388228701,3.896554678979668e+27
2913.0,30.923810418770984,6.179837557071311,3.8754340505765916e+27
2923.0,30.923575729135013,6.179807873135307,3.8544996965613276e+27
2933.0,30.92334219441095,6.179778335192397,3.8337493452057357e+27
2943.0,30.923109804991864,6.179748942028684,3.8131807601041674e+27
2953.0,30.922878551383114,6.179719692444457,3.792791739506602e+27
2963.0,30.922648424200663,6.179690585253974,3.7725801156665846e+27
2973.0,30.922419414169415,6.179661619285256,3.7525437542035844e+27
2983.0,30.922191512121593,6.179632793379878,3.732680553479397e+27
2993.0,30.921964708995137,6.179604106392769,3.7129884439882546e+27
3003.0,30.921738995832143,6.179575557192012,3.6934653877602815e+27
3013.0,30.92151436377732,6.179547144658656,3.674109377777966e+27
3023.0,30.921290804076474,6.179518867686515,3.654918437405324e+27
3033.0,30.92106830807503,6.179490725181993,3.635890619829437e+27
3043.0,30.920846867216564,6.179462716063885,3.617024007514053e+27
3053.0,30.920626473041384,6.179434839263208,3.5983167116649533e+27
3063.0,30.920407117185114,6.17940709372302,3.5797668717067947e+27
3073.0,30.920188791377317,6.1793794783982445,3.5613726547711475e+27
3083.0,30.919971487440137,6.179351992255498,3.5431322551954445e+27
3093.0,30.91975519728696,6.179324634272925,3.5250438940325866e+27
3103.0,30.919539912921113,6.17929740344003,3.507105818570932e+27
