Time,Mass,Radius,Lx
23.0,5.596940043010154,6.41,1.16e+30
23.1,5.591188805616064,6.3836952841345855,1.1379130788620363e+30
23.200000000000003,5.585613777527293,6.358014616420217,1.1163394013017164e+30
23.300000000000004,5.5802077723723436,6.332938253763714,1.0952649051464937e+30
23.400000000000006,5.574963966722798,6.3084471983118675,1.0746759715264427e+30
23.500000000000007,5.569875878578242,6.2845231668048385,1.0545594090858424e+30
23.60000000000001,5.564937347289273,6.261148561112119,1.0349024388211266e+30
23.70000000000001,5.560142514813727,6.238306439929897,1.015692679517818e+30
23.80000000000001,5.555485808209296,6.215980491614561,9.969181337603901e+29
23.900000000000013,5.550961923273233,6.194155008123978,9.785671744902261e+29
24.000000000000014,5.5465658092466406,6.172814860035746,9.606285320880269e+29
24.100000000000016,5.542292654507195,6.15194547260983,9.430912819581272e+29
24.200000000000017,5.538137873179984,6.1315328028619,9.259448325932423e+29
24.30000000000002,5.5340970926014785,6.111563317612754,9.091789140991655e+29
24.40000000000002,5.530166141576606,6.092023972478987,8.927835671598919e+29
24.50000000000002,5.526341039373445,6.072902191769863,8.767491324245489e+29
24.600000000000023,5.522617985404226,6.0541858492556155,8.610662402983735e+29
24.700000000000024,5.5189933495451875,6.035863249772753,8.45725801120788e+29
24.800000000000026,5.5154636630513965,6.017923111632516,8.307189957144091e+29
24.900000000000027,5.512025610025882,6.000354549799363,8.160372662895557e+29
25.00000000000003,5.508676019405469,5.9831470598070595,8.016723076895257e+29
25.10000000000003,5.505411857428454,5.966290502380973,7.876160589625755e+29
25.20000000000003,5.50223022055184,5.949775088736031,7.738606952471729e+29
25.300000000000033,5.499128328788179,5.933591366520748,7.603986199576933e+29
25.400000000000034,5.496103519434274,5.917730206378863,7.472224572583034e+29
25.500000000000036,5.493153241165978,5.9021827891010386,7.343250448133274e+29
25.600000000000037,5.490275048475182,5.886940593340187,7.216994268028987e+29
25.70000000000004,5.487466596426787,5.8719953838649595,7.093388471932082e+29
25.80000000000004,5.484725635715057,5.857339200327013,6.972367432511196e+29
25.90000000000004,5.482050008000163,5.842964346518636,6.853867392933779e+29
26.000000000000043,5.4794376415071175,5.8288633800983085,6.737826406610593e+29
26.100000000000044,5.476886546870511,5.8150291027627645,6.624184279103221e+29
26.200000000000045,5.474394813209638,5.801454550845021,6.512882512109003e+29
26.300000000000047,5.471960604419639,5.788132986318761,6.403864249441579e+29
26.40000000000005,5.469582155665299,5.775057888190387,6.297074224928658e+29
26.50000000000005,5.467257770065021,5.762222944260786,6.192458712152085e+29
26.60000000000005,5.46498581555337,5.7496220432398815,6.08996547595837e+29
26.700000000000053,5.462764721911354,5.737249267197559,5.989543725671013e+29
26.800000000000054,5.4605929779543105,5.7250988843355675,5.891144069938766e+29
26.900000000000055,5.458469128867993,5.713165342065565,5.7947184731568234e+29
27.000000000000057,5.456391773684016,5.70144326037925,5.7002202134005516e+29
27.10000000000006,5.454359562886447,5.689927425497107,5.607603841813913e+29
27.20000000000006,5.452371196141827,5.6786127837830485,5.51682514339714e+29
27.30000000000006,5.450425420145454,5.66749443591277,5.4278410991405365e+29
27.400000000000063,5.4485210265771675,5.656567631284156,5.3406098494534814e+29
27.500000000000064,5.446656850160359,5.645827762658813,5.255090658839811e+29
27.600000000000065,5.444831766818291,5.635270361024132,5.171243881772766e+29
27.700000000000067,5.4430446919222195,5.624891090665896,5.0890309297246156e+29
27.800000000000068,5.441294578626125,5.614685744441964,5.008414239307892e+29
27.90000000000007,5.439580416283217,5.604650239247871,4.929357241486938e+29
28.00000000000007,5.437901228939652,5.594780611665806,4.851824331820135e+29
28.100000000000072,5.436256073901191,5.585073013788669,4.7757808416947935e+29
28.200000000000074,5.4346440403688066,5.575523709211456,4.701193010518186e+29
28.300000000000075,5.433064248139459,5.566129069182466,4.62802795882973e+29
28.400000000000077,5.431515846368521,5.556885568907267,4.556253662300662e+29
28.500000000000078,5.429998012390522,5.5477897839986685,4.48583892658893e+29
28.60000000000008,5.428509950595095,5.538838387066249,4.416753363018301e+29
28.70000000000008,5.42705089135519,5.530028144439337,4.348967365051892e+29
28.800000000000082,5.425620090004791,5.5213559130175955,4.282452085531544e+29
28.900000000000084,5.424216825863536,5.512818637243665,4.2171794146555416e+29
29.000000000000085,5.422840401305801,5.504413346192541,4.15312195866829e+29
29.100000000000087,5.421490140871927,5.496137150772684,4.0902530192365705e+29
29.200000000000088,5.42016539041944,5.487987241034029,4.028546573488002e+29
29.30000000000009,5.418865516312199,5.4799608835783,3.96797725468826e+29
29.40000000000009,5.41758990464555,5.472055419067293,3.908520333534531e+29
29.500000000000092,5.416337960505671,5.464268259824957,3.850151700043538e+29
29.600000000000094,5.415109107261375,5.456596887529264,3.792847846013295e+29
29.700000000000095,5.413902785886768,5.449038850990144,3.7365858480385805e+29
29.800000000000097,5.412718454313217,5.441591764009815,3.6813433510608264e+29
29.900000000000098,5.411555586809192,5.434253303322123,3.62709855243392e+29
30.0000000000001,5.410413673386609,5.427021206607536,3.573830186488051e+29
30.1000000000001,5.409292219232386,5.419893270580725,3.521517509574476e+29
30.200000000000102,5.408190744163992,5.412867349147689,3.4701402855746435e+29
30.300000000000104,5.407108782107833,5.405941351629597,3.4196787718578264e+29
30.400000000000105,5.406045880599377,5.399113241050597,3.370113705671926e+29
30.500000000000107,5.405001600303996,5.392381032487004,3.3214262909527345e+29
30.600000000000108,5.403975514557533,5.385742791475371,3.2735981855374616e+29
30.70000000000011,5.402967208925676,5.3791966324770755,3.226611488768879e+29
30.80000000000011,5.401976280781255,5.372740717397134,3.180448729476906e+29
30.900000000000112,5.401002338898631,5.3663732541551035,3.135092854324992e+29
31.000000000000114,5.400045003064394,5.360092495305965,3.0905272165090608e+29
31.100000000000115,5.399103903703605,5.353896736709028,3.0467355647972845e+29
31.200000000000117,5.398178681520894,5.347784316242961,3.0037020328993312e+29
31.300000000000118,5.397268987155719,5.341753612565114,2.961411129154183e+29
31.40000000000012,5.3963744808511676,5.335803043913439,2.919847726525988e+29
31.50000000000012,5.3954948321356735,5.329931066949324,2.8789970528978103e+29
31.600000000000122,5.394629719517087,5.32413617563973,2.8388446816534904e+29
31.700000000000124,5.393778830188547,5.318416900177205,2.799376522538193e+29
31.800000000000125,5.39294185974563,5.312771805936187,2.7605788127885465e+29
31.900000000000126,5.3921185119142825,5.307199492464335,2.7224381085236035e+29
32.00000000000013,5.391308498289081,5.301698592507483,2.684941276388174e+29
32.10000000000013,5.390511538081341,5.296267771066942,2.6480754854403674e+29
32.20000000000013,5.38972735787669,5.29090572448798,2.611828199275475e+29
32.30000000000013,5.388955691401656,5.2856111795782486,2.5761871683786024e+29
32.400000000000134,5.388196279298929,5.280382892755076,2.541140422698729e+29
32.500000000000135,5.38744886891089,5.275219649220547,2.5066762644371185e+29
32.600000000000136,5.386713214071088,5.2701202621633065,2.472783261043264e+29
32.70000000000014,5.385989074903315,5.265083571986162,2.4394502384117803e+29
32.80000000000014,5.385276217627963,5.2601084455584814,2.406666274273884e+29
32.90000000000014,5.384574414375371,5.255193775492496,2.374420691777328e+29
33.00000000000014,5.383883443005863,5.250338479442671,2.34270305324886e+29
33.10000000000014,5.383203086936204,5.245541499427235,2.3115031541334882e+29
33.200000000000145,5.382533134972218,5.240801801171159,2.2808110171050227e+29
33.300000000000146,5.381873381147309,5.2361183734697345,2.2506168863425564e+29
33.40000000000015,5.381223624566656,5.231490227572065,2.220911221967735e+29
33.50000000000015,5.380583669256842,5.226916396583745,2.1916846946378223e+29
33.60000000000015,5.379953324020712,5.222395934888025,2.1629281802897667e+29
33.70000000000015,5.379332402297244,5.2179279175848565,2.1346327550306017e+29
33.80000000000015,5.3787207220262365,5.213511439947153,2.1067896901696976e+29
33.900000000000155,5.378118105517623,5.209145616893659,2.0793904473885187e+29
34.000000000000156,5.377524379325233,5.20482958247789,2.0524266740436887e+29
34.10000000000016,5.376939374124826,5.2005624893925315,2.0258901985993073e+29
34.20000000000016,5.376362924596234,5.196343508488805,1.9997730261845938e+29
34.30000000000016,5.375794869309444,5.1921718283102845,1.9740673342730685e+29
34.40000000000016,5.3752350506144895,5.188046654640608,1.9487654684796028e+29
34.50000000000016,5.374683314534986,5.183967210064723,1.9238599384717915e+29
34.600000000000165,5.374139510665178,5.179932733543074,1.8993434139922206e+29
34.700000000000166,5.373603492070377,5.175942479998424,1.8752087209883104e+29
34.80000000000017,5.373075115190635,5.171995719914767,1.8514488378465243e+29
34.90000000000017,5.372554239747567,5.168091738948009,1.8280568917278475e+29
35.00000000000017,5.3720407286541745,5.164229837547998,1.8050261550015198e+29
35.10000000000017,5.371534447927582,5.160409330591515,1.7823500417741262e+29
35.20000000000017,5.371035266604558,5.156629547025865,1.760022104511232e+29
35.300000000000175,5.3705430566597405,5.152889829522744,1.7380360307488352e+29
35.400000000000176,5.370057692926446,5.149189534141994,1.7163856398920097e+29
35.50000000000018,5.369579053019988,5.1455280300050035,1.6950648800981853e+29
35.60000000000018,5.369107017263399,5.141904698977335,1.674067825242599e+29
35.70000000000018,5.368641468615477,5.1383189353603775,1.653388671963525e+29
35.80000000000018,5.368182292601072,5.134770145591665,1.633021736784973e+29
35.90000000000018,5.367729377243531,5.1312577479536134,1.612961453314615e+29
36.000000000000185,5.367282612999229,5.127781172290415,1.5932023695147676e+29
36.100000000000186,5.366841892694101,5.124339859732791,1.5737391450443311e+29
36.20000000000019,5.366407111462125,5.120933262430388,1.5545665486696545e+29
36.30000000000019,5.365978166685664,5.1175608432915745,1.5356794557423448e+29
36.40000000000019,5.3655549579376185,5.114222075730373,1.5170728457421226e+29
36.50000000000019,5.365137386925324,5.110916443420341,1.4987417998828668e+29
36.60000000000019,5.364725357436124,5.107643440055174,1.4806814987800578e+29
36.700000000000195,5.364318775284578,5.104402569115793,1.4628872201778831e+29
36.800000000000196,5.363917548261224,5.10119334364375,1.4453543367343198e+29
36.9000000000002,5.3635215860828716,5.098015286020746,1.4280783138625661e+29
37.0000000000002,5.363130800344351,5.094867927754068,1.4110547076272375e+29
37.1000000000002,5.362745104471676,5.091750809267765,1.3942791626937956e+29
37.2000000000002,5.362364413676579,5.088663479699379,1.3777474103297262e+29
37.3000000000002,5.361988644912362,5.0856054967021045,1.3614552664560223e+29
37.400000000000205,5.36161771683103,5.082576426252134,1.345398629747578e+29
37.500000000000206,5.361251549741655,5.079575842461114,1.3295734797811386e+29
37.60000000000021,5.3608900655699365,5.0766033273935065,1.3139758752294937e+29
37.70000000000021,5.360533187818914,5.073658470888721,1.2986019521006383e+29
37.80000000000021,5.360180841530805,5.070740870387901,1.2834479220206678e+29
37.90000000000021,5.359832953249907,5.067850130765169,1.268510070559209e+29
38.00000000000021,5.359489450986566,5.064985864163262,1.2537847555962246e+29
38.100000000000215,5.359150264182139,5.062147689833392,1.239268405729061e+29
38.200000000000216,5.358815323674944,5.059335233979196,1.2249575187186513e+29
38.30000000000022,5.358484561667157,5.0565481296047015,1.2108486599738036e+29
38.40000000000022,5.358157911692627,5.053786016366141,1.1969384610725535e+29
38.50000000000022,5.357835308585574,5.051048540427542,1.1832236183195746e+29
38.60000000000022,5.357516688450154,5.04833535431994,1.169700891338679e+29
38.70000000000022,5.357201988630857,5.045646116804182,1.1563671016994666e+29
38.800000000000225,5.356891147683704,5.042980492737117,1.1432191315772109e+29
38.900000000000226,5.356584105348233,5.040338152941183,1.1302539224450877e+29
39.00000000000023,5.356280802520242,5.037718774077186,1.117468473797894e+29
39.10000000000023,5.355981181225263,5.035122038520297,1.1048598419064137e+29
39.20000000000023,5.3556851845927484,5.032547634239073,1.092425138601623e+29
39.30000000000023,5.3553927568309465,5.029995254677463,1.0801615300879424e+29
39.40000000000023,5.355103843202446,5.027464598639722,1.0680662357847738e+29
39.500000000000234,5.3548183900003705,5.02495537017815,1.0561365271955768e+29
39.600000000000236,5.3545363445251954,5.022467278483539,1.0443697268037629e+29
39.70000000000024,5.354257655062177,5.020000037778287,1.0327632069947037e+29
39.80000000000024,5.353982270859379,5.01755336721213,1.0213143890031762e+29
39.90000000000024,5.353710142106255,5.0151269907603435,1.0100207418855775e+29
40.00000000000024,5.353441219912811,5.012720637124431,9.988797815162709e+28
40.10000000000024,5.353175456289281,5.0103340396351514,9.878890696074344e+28
40.200000000000244,5.352912804126352,5.007966936157907,9.77046212751806e+28
40.300000000000246,5.352653217175874,5.005619069000334,9.663488614877366e+28
40.40000000000025,5.352396650032078,5.0032901848221165,9.55794709385976e+28
40.50000000000025,5.352143058113267,5.00098003454692,9.453814921576326e+28
40.60000000000025,5.351892397643973,4.998688373276398,9.3510698678277e+28
40.70000000000025,5.351644625637563,4.996414960206212,9.249690106591084e+28
40.80000000000025,5.351399699879288,4.994159558544028,9.149654207703228e+28
40.900000000000254,5.3511575789097465,4.991921935429402,9.050941128734399e+28
41.000000000000256,5.350918222008777,4.989701861855551,8.953530207048456e+28
41.10000000000026,5.350681589179737,4.987499112592912,8.857401152044402e+28
41.20000000000026,5.350447641134181,4.985313466114482,8.762534037574761e+28
41.30000000000026,5.3502163392769155,4.983144704522871,8.668909294536393e+28
41.40000000000026,5.349987645691417,4.980992613479012,8.576507703629369e+28
41.50000000000026,5.349761523125616,4.978856982132518,8.48531038827976e+28
41.600000000000264,5.349537934978018,4.976737603053611,8.395298807722171e+28
41.700000000000266,5.349316845284178,4.974634272166606,8.306454750238113e+28
41.80000000000027,5.349098218703483,4.972546788684889,8.218760326546293e+28
41.90000000000027,5.348882020506272,4.970474955047372,8.132197963341075e+28
42.00000000000027,5.34866821656126,4.968418576856366,8.046750396975442e+28
42.10000000000027,5.348456773323256,4.9663774628168476,7.962400667284888e+28
42.20000000000027,5.348247657821189,4.9643514246770835,7.879132111548795e+28
42.300000000000274,5.348040837646409,4.962340277170577,7.796928358585877e+28
42.400000000000276,5.347836280941269,4.960343837959304,7.71577332298044e+28
42.50000000000028,5.347633956387978,4.9583619275781885,7.635651199436257e+28
42.60000000000028,5.347433833197713,4.956394369380827,7.55654645725492e+28
42.70000000000028,5.347235881099996,4.954440989486379,7.478443834935675e+28
42.80000000000028,5.347040070332309,4.952501616727655,7.401328334893769e+28
42.90000000000028,5.346846371629955,4.950576082600288,7.325185218294436e+28
43.000000000000284,5.34665475621616,4.948664221213065,7.2499999999999875e+28
43.100000000000286,5.346464379040999,4.946761490614881,7.243371353391361e+28
43.20000000000029,5.346274412805376,4.944863443222658,7.236764108164028e+28
43.30000000000029,5.346084855727744,4.9429700567467165,7.230178145920238e+28
43.40000000000029,5.3458957060382835,4.9410813090546695,7.223613349188736e+28
43.50000000000029,5.3457069619788,4.939197178169964,7.217069601415391e+28
43.60000000000029,5.345518621802619,4.937317642270427,7.210546786953953e+28
43.700000000000294,5.345330683774491,4.935442679686828,7.204044791056916e+28
43.800000000000296,5.345143146170481,4.933572268901447,7.197563499866497e+28
43.9000000000003,5.34495600727788,4.931706388546705,7.191102800405724e+28
44.0000000000003,5.344769265395099,4.929845017403732,7.184662580569634e+28
44.1000000000003,5.344582918831576,4.927988134401039,7.178242729116578e+28
44.2000000000003,5.344396965907678,4.926135718613127,7.1718431356596404e+28
44.3000000000003,5.344211404954608,4.9242877492591735,7.165463690658144e+28
44.400000000000304,5.34402623431431,4.922444205701693,7.15910428540928e+28
44.500000000000306,5.343841452339374,4.920605067445231,7.152764812039823e+28
44.60000000000031,5.343657057392949,4.9187703141350685,7.146445163497957e+28
44.70000000000031,5.34347304784865,4.916939925555955,7.140145233545194e+28
44.80000000000031,5.343289422090463,4.915113881630818,7.133864916748391e+28
44.90000000000031,5.3431061785126674,4.9132921624195385,7.1276041084718675e+28
45.00000000000031,5.3429233155197355,4.911474748117692,7.121362704869606e+28
45.100000000000314,5.342740831526254,4.90966161905534,7.115140602877564e+28
45.200000000000315,5.342558724956835,4.907852755695816,7.10893770020606e+28
45.30000000000032,5.342376994246031,4.9060481386345245,7.102753895332261e+28
45.40000000000032,5.34219563783825,4.904247748597767,7.096589087492753e+28
45.50000000000032,5.3420146541876745,4.90245156644157,7.090443176676208e+28
45.60000000000032,5.341834041758176,4.900659573150527,7.084316063616126e+28
45.70000000000032,5.341653799023235,4.898871749836651,7.078207649783674e+28
45.800000000000324,5.341473924465861,4.8970880777382515,7.072117837380603e+28
45.900000000000325,5.34129441657851,4.895308538218811,7.0660465293322485e+28
46.00000000000033,5.341115273863008,4.893533112765878,7.059993629280616e+28
46.10000000000033,5.340936494830473,4.891761782989985,7.053959041577548e+28
46.20000000000033,5.340758078001234,4.889994530623541,7.047942671277962e+28
46.30000000000033,5.340580021904761,4.888231337519798,7.041944424133182e+28
46.40000000000033,5.34040232507958,4.886472185651755,7.035964206584334e+28
46.500000000000334,5.340224986073208,4.884717057111133,7.030001925755829e+28
46.600000000000335,5.340048003442071,4.8829659341073395,7.024057489448908e+28
46.70000000000034,5.339871375751435,4.881218798966437,7.018130806135279e+28
46.80000000000034,5.33969510157533,4.8794756341301255,7.012221784950814e+28
46.90000000000034,5.339519179496483,4.877736422154755,7.006330335689323e+28
47.00000000000034,5.3393436081062395,4.8760011457103225,7.000456368796397e+28
47.10000000000034,5.339168386004501,4.874269787579495,6.99459979536333e+28
47.200000000000344,5.33899351179965,4.872542330656641,6.988760527121097e+28
47.300000000000345,5.3388189841084825,4.870818757946868,6.982938476434416e+28
47.40000000000035,5.33864480155614,4.869099052565073,6.977133556295861e+28
47.50000000000035,5.338470962776041,4.867383197735003,6.971345680320059e+28
47.60000000000035,5.3382974664098155,4.865671176788329,6.965574762737937e+28
47.70000000000035,5.3381243111072365,4.863962973163719,6.959820718391047e+28
47.80000000000035,5.337951495526157,4.86225857040594,6.954083462725947e+28
47.900000000000354,5.337779018332444,4.860557952164947,6.948362911788648e+28
48.000000000000355,5.337606878199913,4.858861102194991,6.9426589822191235e+28
48.10000000000036,5.337435073810266,4.857168004353752,6.93697159124588e+28
48.20000000000036,5.337263603853026,4.855478642601443,6.931300656680591e+28
48.30000000000036,5.337092467025482,4.853793000999982,6.925646096912786e+28
48.40000000000036,5.336921662032616,4.852111063712101,6.920007830904601e+28
48.50000000000036,5.336751187587051,4.850432815000531,6.9143857781855905e+28
48.600000000000364,5.336581042408987,4.848758239227139,6.908779858847593e+28
48.700000000000365,5.336411225226141,4.847087320852124,6.903189993539654e+28
48.80000000000037,5.3362417347736875,4.845420044433185,6.897616103463007e+28
48.90000000000037,5.336072569794202,4.843756394624719,6.89205811036611e+28
