Time,Mass,Radius,Lx
23.0,5.596940043010154,6.41,1.1600000000000076e+30
23.1,5.591150064823437,6.383533379809101,1.154660410481529e+30
23.200000000000003,5.585462139475715,6.357377284607717,1.149368305985163e+30
23.300000000000004,5.579873835866034,6.331526878686107,1.144123062267769e+30
23.400000000000006,5.574382792374805,6.30597740211585,1.1389240659248484e+30
23.500000000000007,5.568986714656966,6.280724170332295,1.1337707141570427e+30
23.60000000000001,5.5636833735073274,6.255762573650918,1.128662414542625e+30
23.70000000000001,5.558470602795953,6.231088076723607,1.1235985848158149e+30
23.80000000000001,5.553346297471505,6.206696217940598,1.1185786526507383e+30
23.900000000000013,5.548308411630464,6.1825826087832905,1.1136020554508694e+30
24.000000000000014,5.543354956650229,6.158742933132935,1.1086682401437893e+30
24.100000000000016,5.538483999384075,6.1351729465397735,1.10377666298111e+30
24.200000000000017,5.533693660416057,6.111868475456921,1.0989267893434096e+30
24.30000000000002,5.528982112373932,6.08882541644302,1.0941180935500337e+30
24.40000000000002,5.524347578298241,6.066039735337272,1.0893500586736234e+30
24.50000000000002,5.519788330065758,6.043507466410466,1.0846221763592339e+30
24.600000000000023,5.515302686865498,6.021224711495025,1.079933946647908e+30
24.700000000000024,5.51088901372559,5.999187639097173,1.0752848778045835e+30
24.800000000000026,5.506545720089322,5.977392483493913,1.070674486150206e+30
24.900000000000027,5.502271258438723,5.955835543817361,1.0661022958979276e+30
25.00000000000003,5.498064122964102,5.934513183128836,1.0615678389932818e+30
25.10000000000003,5.493922848277996,5.913421827484804,1.0570706549582161e+30
25.20000000000003,5.489846008172029,5.892557964996776,1.052610290738877e+30
25.300000000000033,5.485832214415237,5.871918144886914,1.0481863005570442e+30
25.400000000000034,5.481880115592438,5.851498976541119,1.0437982457651092e+30
25.500000000000036,5.4779883959812965,5.831297128561118,1.0394456947045022e+30
25.600000000000037,5.474155774466748,5.811309327817019,1.0351282225674734e+30
25.70000000000004,5.470381003491511,5.791532358501593,1.0308454112621315e+30
25.80000000000004,5.466662868041436,5.771963061187543,1.0265968492806586e+30
25.90000000000004,5.463000184664514,5.752598331888828,1.0223821315706043e+30
26.000000000000043,5.459391800522351,5.7334351211270125,1.0182008594091853e+30
26.100000000000044,5.45583659247302,5.714470433003585,1.0140526402805035e+30
26.200000000000045,5.452333466184187,5.695701324279087,1.009937087755604e+30
26.300000000000047,5.448881355275463,5.677124903459696,1.0058538213753003e+30
26.40000000000005,5.445479220488978,5.658738329892026,1.0018024665356893e+30
26.50000000000005,5.4421260488871885,5.640538812866728,9.977826543762842e+29
26.60000000000005,5.438820853076986,5.622523610731372,9.937940216707e+29
26.700000000000053,5.435562670459176,5.604690030013137,9.898362107198186e+29
26.800000000000054,5.43235056250247,5.587035424551711,9.859088692473721e+29
26.900000000000055,5.429183614041117,5.56955719464279,9.82011650297879e+29
27.000000000000057,5.426060932595368,5.5522527861924615,9.78144212136872e+29
27.10000000000006,5.4229816477139785,5.535119689882773,9.743062181533589e+29
27.20000000000006,5.419944910337985,5.5181554403487425,9.704973367644561e+29
27.30000000000006,5.416949892185012,5.501357615366976,9.667172413221412e+29
27.400000000000063,5.413995785153411,5.4847238350560765,9.629656100220684e+29
27.500000000000064,5.411081800745532,5.468251761088998,9.592421258143938e+29
27.600000000000065,5.408207169509477,5.451939095917394,9.555464763165605e+29
27.700000000000067,5.405371140498685,5.435783582008123,9.518783537279917e+29
27.800000000000068,5.402572980748752,5.419783001091872,9.482374547466451e+29
27.90000000000007,5.3998119747708655,5.403935173424006,9.44623480487379e+29
28.00000000000007,5.397087424061313,5.388237957057611,9.410361364020887e+29
28.100000000000072,5.394398646626484,5.372689247128731,9.374751322015626e+29
28.200000000000074,5.391744976522851,5.357286975153791,9.339401817790219e+29
28.300000000000075,5.389125763411412,5.342029108339117,9.304310031352953e+29
28.400000000000077,5.386540372126097,5.326913648902563,9.269473183055922e+29
28.500000000000078,5.383988182255663,5.311938633407108,9.234888532878352e+29
28.60000000000008,5.38146858773862,5.297102132106392,9.200553379725088e+29
28.70000000000008,5.378980996470749,5.282402248302073,9.166465060739927e+29
28.800000000000082,5.376524829924763,5.267837117712908,9.132620950633389e+29
28.900000000000084,5.374099522781736,5.2534049078554546,9.099018461024603e+29
29.000000000000085,5.371704522573861,5.239103817436247,9.065655039796938e+29
29.100000000000087,5.369339289338186,5.224932075755359,9.032528170467074e+29
29.200000000000088,5.367003295280948,5.210887942121209,8.999635371567162e+29
29.30000000000009,5.3646960244521384,5.196969705276448,8.966974196039777e+29
29.40000000000009,5.362416972429978,5.183175682834818,8.934542230645329e+29
29.500000000000092,5.360165646014945,5.169504220728811,8.902337095381689e+29
29.600000000000094,5.35794156293306,5.155953692667994,8.870356442915659e+29
29.700000000000095,5.3557442515481055,5.142522499607862,8.838597958026086e+29
29.800000000000097,5.35357325058249,5.129209069229008,8.807059357058277e+29
29.900000000000098,5.351428108846463,5.116011855426528,8.775738387389497e+29
30.0000000000001,5.349308384975412,5.102929337809432,8.744632826905256e+29
30.1000000000001,5.347213647174976,5.089960021209955,8.713740483486154e+29
30.200000000000102,5.345143472973705,5.07710243520258,8.683059194505016e+29
30.300000000000104,5.343097448983038,5.064355133632603,8.652586826334108e+29
30.400000000000105,5.341075170664343,5.051716694154115,8.622321273862156e+29
30.500000000000107,5.339076242102797,5.039185717777194,8.592260460020991e+29
30.600000000000108,5.33710027578788,5.026760828424171,8.562402335321553e+29
30.70000000000011,5.335146892400273,5.014440672494828,8.532744877399069e+29
30.80000000000011,5.333215720604943,5.002223918440302,8.503286090567183e+29
30.900000000000112,5.331306396850229,4.9901092563456215,8.474024005380825e+29
31.000000000000114,5.329418565172721,4.97809539752064,8.444956678207645e+29
31.100000000000115,5.327551877007756,4.966181074099261,8.41608219080779e+29
31.200000000000117,5.325705991005353,4.954365038646787,8.387398649921848e+29
31.300000000000118,5.323880572851396,4.942646063775204,8.358904186866782e+29
31.40000000000012,5.3220752950939225,4.93102294176629,8.330596957139649e+29
31.50000000000012,5.32028983697434,4.919494484202412,8.302475140028964e+29
31.600000000000122,5.318523884263413,4.908059521604768,8.27453693823352e+29
31.700000000000124,5.316777129101876,4.896716903079053,8.246780577488472e+29
31.800000000000125,5.315049269845532,4.885465495968304,8.219204306198594e+29
31.900000000000126,5.313340010914678,4.874304185512818,8.191806395078461e+29
32.00000000000013,5.311649062647745,4.8632318745170355,8.164585136799481e+29
32.10000000000013,5.309976141158996,4.852247483023168,8.137538845643577e+29
32.20000000000013,5.3083209682001815,4.841349947991501,8.110665857163398e+29
32.30000000000013,5.306683271026007,4.830538222987228,8.083964527848901e+29
32.400000000000134,5.305062782263309,4.819811277873631,8.057433234800176e+29
32.500000000000135,5.303459239783822,4.8091680985115595,8.031070375406377e+29
32.600000000000136,5.301872386580423,4.798607686464997,8.004874367030619e+29
32.70000000000014,5.300301970646745,4.78812905871265,7.978843646700717e+29
32.80000000000014,5.2987477448600675,4.777731247365389,7.952976670805652e+29
32.90000000000014,5.297209466867368,4.76741329938945,7.927271914797612e+29
33.00000000000014,5.295686898974457,4.757174276335268,7.901727872899527e+29
33.10000000000014,5.294179808038085,4.747013254071824,7.876343057817946e+29
33.200000000000145,5.292687965360945,4.736929322526393,7.851116000461163e+29
33.300000000000146,5.291211146589475,4.72692158542955,7.826045249662483e+29
33.40000000000015,5.289749131614384,4.716989160065367,7.801129371908493e+29
33.50000000000015,5.2883017044738105,4.707131177026689,7.776366951072267e+29
33.60000000000015,5.286868653259045,4.697346779975314,7.751756588151383e+29
33.70000000000015,5.285449770022735,4.68763512540709,7.727296901010638e+29
33.80000000000015,5.284044850689495,4.677995382421687,7.702986524129404e+29
33.900000000000155,5.282653694968858,4.66842673249707,7.678824108353479e+29
34.000000000000156,5.281276106270503,4.658928369268496,7.654808320651373e+29
34.10000000000016,5.279911891621669,4.649499498311962,7.630937843874933e+29
34.20000000000016,5.278560861586724,4.6401393369319965,7.607211376524195e+29
34.30000000000016,5.2772228301888005,4.630847113953741,7.583627632516413e+29
34.40000000000016,5.275897614833446,4.6216220695191765,7.560185340959141e+29
34.50000000000016,5.274585036234237,4.61246345488744,7.536883245927313e+29
34.600000000000165,5.273284918340287,4.603370532239138,7.513720106244226e+29
34.700000000000166,5.2719970882656,4.594342574484547,7.490694695266347e+29
34.80000000000017,5.270721376220223,4.585378865075681,7.467805800671879e+29
34.90000000000017,5.26945761544313,4.5764786978220515,7.445052224252985e+29
35.00000000000017,5.268205642136809,4.567641376710136,7.422432781711628e+29
35.10000000000017,5.266965295403477,4.558866215726391,7.399946302458923e+29
35.20000000000017,5.265736417182906,4.55015253868379,7.377591629417952e+29
35.300000000000175,5.264518852191796,4.541499679051813,7.355367618829965e+29
35.400000000000176,5.263312447864647,4.532906979789743,7.3332731400639e+29
35.50000000000018,5.262117054296107,4.524373793183304,7.31130707542916e+29
35.60000000000018,5.260932524184741,4.515899480684469,7.289468319991566e+29
35.70000000000018,5.259758712778183,4.507483412754462,7.267755781392451e+29
35.80000000000018,5.258595477819629,4.499124968709784,7.246168379670809e+29
35.90000000000018,5.25744267949565,4.490823536571307,7.224705047088449e+29
36.000000000000185,5.256300180385267,4.48257851291628,7.203364727958095e+29
36.100000000000186,5.2551678454102655,4.474389302733236,7.182146378474373e+29
36.20000000000019,5.254045541786715,4.466255319279732,7.161048966547626e+29
36.30000000000019,5.252933138977656,4.458175983942835,7.140071471640506e+29
36.40000000000019,5.251830508646925,4.450150726102313,7.119212884607292e+29
36.50000000000019,5.250737524614088,4.442178982996502,7.098472207535872e+29
36.60000000000019,5.2496540628104515,4.4342601995907405,7.077848453592343e+29
36.700000000000195,5.248580001236116,4.426393828448343,7.057340646868178e+29
36.800000000000196,5.247515219918053,4.418579329604061,7.036947822229916e+29
36.9000000000002,5.246459600869174,4.410816170439974,7.016669025171317e+29
37.0000000000002,5.245413028048363,4.403103825563757,6.996503311667939e+29
37.1000000000002,5.2443753873214485,4.395441776689276,6.976449748034093e+29
37.2000000000002,5.2433465664230905,4.38782951251947,6.956507410782132e+29
37.3000000000002,5.2423264549195565,4.380266528631452,6.936675386484023e+29
37.400000000000205,5.241314944172364,4.372752327363797,6.916952771635167e+29
37.500000000000206,5.240311927302769,4.365286417705979,6.897338672520414e+29
37.60000000000021,5.2393172991570705,4.357868315189894,6.877832205082248e+29
37.70000000000021,5.238330956272718,4.350497541783412,6.858432494791084e+29
37.80000000000021,5.237352796845201,4.343173625785983,6.839138676517649e+29
37.90000000000021,5.236382720695686,4.33589610172615,6.819949894407404e+29
38.00000000000021,5.235420629239405,4.328664510261024,6.80086530175697e+29
38.100000000000215,5.234466425454754,4.321478398077632,6.781884060892521e+29
38.200000000000216,5.2335200138530995,4.314337317796111,6.7630053430501e+29
38.30000000000022,5.232581300449257,4.307240827874686,6.744228328257843e+29
38.40000000000022,5.2316501927326495,4.300188492516451,6.725552205220053e+29
38.50000000000022,5.2307265996391,4.293179881577851,6.706976171203099e+29
38.60000000000022,5.229810431523263,4.286214570478867,6.688499431923115e+29
38.70000000000022,5.228901600131671,4.2792921401148725,6.670121201435446e+29
38.800000000000225,5.228000018576379,4.2724121767701035,6.651840702025838e+29
38.900000000000226,5.227105601309194,4.265574272032728,6.633657164103308e+29
39.00000000000023,5.226218264096473,4.258778022711452,6.615569826094685e+29
39.10000000000023,5.22533792399448,4.2520230307536995,6.597577934340802e+29
39.20000000000023,5.224464499325279,4.245308903165233,6.579680742994254e+29
39.30000000000023,5.223597909653164,4.238635251931287,6.561877513918783e+29
39.40000000000023,5.222738075761591,4.232001693939104,6.544167516590174e+29
39.500000000000234,5.221884919630623,4.225407850901886,6.526550027998685e+29
39.600000000000236,5.221038364414859,4.218853349284137,6.509024332552974e+29
39.70000000000024,5.220198334421841,4.212337820228327,6.491589721985491e+29
39.80000000000024,5.219364755090929,4.2058608994829125,6.474245495259306e+29
39.90000000000024,5.218537552972625,4.199422227331605,6.456990958476362e+29
40.00000000000024,5.2177166557083465,4.193021448523979,6.43982542478711e+29
40.10000000000024,5.216901992010627,4.1866582122072264,6.422748214301511e+29
40.200000000000244,5.2160934916437425,4.180332171859231,6.405758654001395e+29
40.300000000000246,5.215291085404742,4.174042985222757,6.388856077654112e+29
40.40000000000025,5.214494705104888,4.167790314240857,6.372039825727504e+29
40.50000000000025,5.213704283551487,4.161573824993397,6.355309245306138e+29
40.60000000000025,5.212919754530094,4.155393187634712,6.338663690008784e+29
40.70000000000025,5.212141052787101,4.1492480763323805,6.3221025199071386e+29
40.80000000000025,5.211368114012684,4.1431381692070435,6.3056251014457465e+29
40.900000000000254,5.210600874824106,4.137063148273311,6.289230807363102e+29
41.000000000000256,5.209839272749368,4.131022699381697,6.272919016613939e+29
41.10000000000026,5.209083246211197,4.125016512161556,6.256689114292639e+29
41.20000000000026,5.208332734511368,4.119044279965031,6.240540491557792e+29
41.30000000000026,5.207587677815343,4.1131056998119675,6.224472545557848e+29
41.40000000000026,5.206848017137234,4.107200472335799,6.208484679357866e+29
41.50000000000026,5.206113694325065,4.101328301730354,6.192576301867329e+29
41.600000000000264,5.205384652046341,4.095488895697578,6.176746827769011e+29
41.700000000000266,5.204660833773906,4.089681965396185,6.160995677448886e+29
41.80000000000027,5.203942183772096,4.083907225391178,6.145322276927037e+29
41.90000000000027,5.203228647083158,4.078164393604213,6.1297260577895826e+29
42.00000000000027,5.202520169513957,4.072453191264843,6.114206457121579e+29
42.10000000000027,5.201816697622946,4.0667733428626,6.098762917440884e+29
42.20000000000027,5.2011181787073895,4.06112457609985,6.083394886632975e+29
42.300000000000274,5.200424560790855,4.055506621845511,6.068101817886708e+29
42.400000000000276,5.199735792610943,4.049919214089503,6.0528831696309806e+29
42.50000000000028,5.199051823607269,4.044362089898,6.037738405472311e+29
42.60000000000028,5.198372603909678,4.038834989369413,6.022666994133304e+29
42.70000000000028,5.197698084326692,4.033337655591151,6.007668409391977e+29
42.80000000000028,5.197028216334193,4.0278698345970785,5.992742130021972e+29
42.90000000000028,5.196362952064313,4.022431275325685,5.977887639733583e+29
43.000000000000284,5.19570224429456,4.0170217295789765,5.963104427115635e+29
43.100000000000286,5.195046046437141,4.011640951982033,5.948391985578174e+29
43.20000000000029,5.1943943125285,4.006288699943253,5.933749813295964e+29
43.30000000000029,5.19374699721906,4.000964733615248,5.919177413152767e+29
43.40000000000029,5.193104055763161,3.9956688158563938,5.904674292686414e+29
43.50000000000029,5.1924654440091915,3.9904007121930065,5.890239964034627e+29
43.60000000000029,5.191831118389912,3.985160190782152,5.8758739438816106e+29
43.700000000000294,5.191201035912964,3.979947022375066,5.861575753405373e+29
43.800000000000296,5.190575154151558,3.974760980281162,5.8473449182257764e+29
43.9000000000003,5.189953431235347,3.9696018403326616,5.8331809683533145e+29
44.0000000000003,5.189335825841461,3.964469380849757,5.819083438138582e+29
44.1000000000003,5.188722297185722,3.959363382606372,5.805051866222454e+29
44.2000000000003,5.188112805014022,3.9542836287964813,5.7910857954869324e+29
44.3000000000003,5.187507309593864,3.9492299050009594,5.777184773006682e+29
44.400000000000304,5.186905771706061,3.944201999154973,5.763348350001213e+29
44.500000000000306,5.18630815263659,3.939199701515907,5.7495760817877276e+29
44.60000000000031,5.185714414168602,3.9342228046317955,5.735867527734597e+29
44.70000000000031,5.185124518574576,3.9292711033102625,5.722222251215478e+29
44.80000000000031,5.1845384286086285,3.924344394587983,5.708639819564048e+29
44.90000000000031,5.18395610749895,3.9194424777005907,5.695119804029342e+29
45.00000000000031,5.183377518940398,3.9145651540531023,5.6816617797317136e+29
45.100000000000314,5.182802627087215,3.909712227190793,5.66826532561936e+29
45.200000000000315,5.182231396545884,3.904883502770545,5.654930024425452e+29
45.30000000000032,5.181663792368121,3.900078788532647,5.6416554626258294e+29
45.40000000000032,5.181099780043985,3.8952978942730376,5.62844123039726e+29
45.50000000000032,5.18053932549512,3.8905406318159783,5.615286921576258e+29
45.60000000000032,5.179982395068123,3.88580681498718,5.6021921336184476e+29
45.70000000000032,5.1794289555280235,3.881096259587333,5.5891564675584666e+29
45.800000000000324,5.178878974051889,3.876408783366049,5.576179527970405e+29
45.900000000000325,5.178332418222542,3.8717442059962273,5.5632609229287565e+29
46.00000000000033,5.1777892560223915,3.8671023490488046,5.550400263969894e+29
46.10000000000033,5.177249455827374,3.862483035967908,5.537597166054046e+29
46.20000000000033,5.176712986401004,3.857886092046384,5.524851247527778e+29
46.30000000000033,5.1761798168885305,3.853311344401717,5.512162130086956e+29
46.40000000000033,5.175649916811197,3.848758621952303,5.499529438740204e+29
46.500000000000334,5.175123256060605,3.8442277553941278,5.486952801772831e+29
46.600000000000335,5.174599804893175,3.839718577177746,5.4744318507112304e+29
46.70000000000034,5.174079533924707,3.8352309214856577,5.461966220287737e+29
46.80000000000034,5.173562414125036,3.8307646242100195,5.44955554840595e+29
46.90000000000034,5.173048416812782,3.8263195229306888,5.4371994761064965e+29
47.00000000000034,5.172537513650193,3.821895456893615,5.424897647533228e+29
47.10000000000034,5.172029676638073,3.8174922669895412,5.412649709899875e+29
47.200000000000344,5.171524878110807,3.813109795733051,5.400455313457106e+29
47.300000000000345,5.171023090731464,3.808747887241911,5.388314111460028e+29
47.40000000000035,5.170524287486992,3.8044063872167504,5.3762257601360836e+29
47.50000000000035,5.170028441683488,3.8000851429210125,5.3641899186533816e+29
47.60000000000035,5.1695355269415595,3.7957840031612378,5.3522062490894014e+29
47.70000000000035,5.169045517191756,3.7915028182676322,5.340274416400129e+29
47.80000000000035,5.168558386670086,3.7872414400749244,5.328394088389553e+29
47.900000000000354,5.168074109913609,3.7829997219035065,5.3165649356795675e+29
48.000000000000355,5.167592661756097,3.77877751854086,5.304786631680247e+29
48.10000000000036,5.167114017323781,3.774574686223261,5.293058852560496e+29
48.20000000000036,5.16663815203116,3.770391082617752,5.281381277219071e+29
48.30000000000036,5.166165041576883,3.766226566804371,5.2697535872559654e+29
48.40000000000036,5.165694661939703,3.762080999258661,5.258175466944147e+29
48.50000000000036,5.165226989374502,3.75795424183443,5.2466466032016575e+29
48.600000000000364,5.1647620004083725,3.7538461577467643,5.235166685564056e+29
48.700000000000365,5.164299671836774,3.7497566115552745,5.2237354061572064e+29
48.80000000000037,5.163839980719754,3.7456854691476296,5.212352459670397e+29
48.90000000000037,5.16338290437822,3.7416325977232665,5.201017543329808e+29
49.00000000000037,5.162928420390291,3.737597865777406,5.1897303568722886e+29
