Time,Mass,Radius,Lx
23.0,14.63349375081365,8.74,1.3e+30
24.0,14.628784574445115,8.705111947586486,1.3e+30
25.0,14.624136610385612,8.67174332466573,1.3e+30
26.0,14.619546662283037,8.639769449739877,1.3e+30
27.0,14.615011818143554,8.609080205522202,1.3e+30
28.0,14.610529415445692,8.57957786935251,1.3e+30
29.0,14.606097011625568,8.551175331632503,1.3e+30
30.0,14.601712358949893,8.523794622080745,1.3e+30
31.0,14.597373383000159,8.497365682270159,1.3e+30
32.0,14.593078164149468,8.471825336776664,1.3e+30
33.0,14.588824921535354,8.447116425678137,1.3e+30
34.0,14.58461199912696,8.423187069037212,1.3e+30
35.0,14.580437853559387,8.39999004004265,1.3e+30
36.0,14.576301043467089,8.37748222814738,1.3e+30
37.0,14.572200220095121,8.35562417717002,1.3e+30
38.0,14.568134119004814,8.334379686171864,1.3e+30
39.0,14.564101552720876,8.313715463168124,1.3e+30
40.0,14.560101404191702,8.293600823518332,1.3e+30
41.0,14.556132620954893,8.274007426269986,1.3e+30
42.0,14.552194209916605,8.254909042879685,1.3e+30
43.0,14.548285232667086,8.236281353667097,1.3e+30
44.0,14.544404801266154,8.2181017681149,1.3e+30
45.0,14.540552074441878,8.200349265747704,1.3e+30
46.0,14.536726254153663,8.183004254832575,1.3e+30
47.0,14.532926582477659,8.16604844656455,1.3e+30
48.0,14.529152338778054,8.149464742749718,1.3e+30
49.0,14.525402837132608,8.133237135289182,1.3e+30
50.0,14.521677423984837,8.117350616010542,1.3e+30
51.0,14.5179754759988,8.10179109559774,1.3e+30
52.0,14.514296398095336,8.086545330542211,1.3e+30
53.0,14.510639621651247,8.071600857183967,1.3e+30
54.0,14.50700460284506,8.056945932034694,1.3e+30
55.0,14.503390821134955,8.042569477680194,1.3e+30
56.0,14.499797777856106,8.028461033649341,1.3e+30
57.0,14.496224994926065,8.01461071171369,1.3e+30
58.0,14.492672013648153,8.001009155148004,1.3e+30
59.0,14.489138393603863,7.987647501538978,1.3e+30
60.0,14.485623711626246,7.974517348778621,1.3e+30
61.0,14.482127560847136,7.961610723921417,1.3e+30
62.0,14.478649549811744,7.948920054621441,1.3e+30
63.0,14.475189301654886,7.936438142897785,1.3e+30
64.0,14.471746453333616,7.924158141004762,1.3e+30
65.0,14.468320654911583,7.912073529208044,1.3e+30
66.0,14.464911568890908,7.900178095289297,1.3e+30
67.0,14.46151886958772,7.888465915620927,1.3e+30
68.0,14.458142242547913,7.8769313376691095,1.3e+30
69.0,14.454781383999968,7.865568963798058,1.3e+30
70.0,14.451436000341996,7.8543736362613785,1.3e+30
71.0,14.448105807660383,7.843340423277866,1.3e+30
72.0,14.4447905312777,7.832464606099343,1.3e+30
73.0,14.441489905327694,7.821741666987112,1.3e+30
74.0,14.438203672355401,7.811167278021662,1.3e+30
75.0,14.434931582940573,7.800737290677484,1.3e+30
76.0,14.431673395342763,7.790447726101229,1.3e+30
77.0,14.428428875166562,7.780294766037144,1.3e+30
78.0,14.42519779504559,7.770274744348935,1.3e+30
79.0,14.42197993434397,7.7603841390916894,1.3e+30
80.0,14.418775078874097,7.750619565091743,1.3e+30
81.0,14.415583020629633,7.740977766996,1.3e+30
82.0,14.412403557532722,7.731455612755624,1.3e+30
83.0,14.409236493194499,7.7220500875119935,1.3e+30
84.0,14.406081636688054,7.712758287855575,1.3e+30
85.0,14.402938802333054,7.703577416430816,1.3e+30
86.0,14.399807809491293,7.694504776862399,1.3e+30
87.0,14.396688482372499,7.68553776898019,1.3e+30
88.0,14.393580649849774,7.676673884322124,1.3e+30
89.0,14.390484145284073,7.667910701895849,1.3e+30
90.0,14.387398806357204,7.659245884181525,1.3e+30
91.0,14.384324474912814,7.650677173359549,1.3e+30
92.0,14.38126099680493,7.642202387748203,1.3e+30
93.0,14.378208221753589,7.633819418437426,1.3e+30
94.0,14.375166003207177,7.625526226105897,1.3e+30
95.0,14.372134198211075,7.61732083800964,1.3e+30
96.0,14.36911266728227,7.6092013451311615,1.3e+30
97.0,14.366101274289605,7.601165899479055,1.3e+30
98.0,14.363099886339349,7.593212711528581,1.3e+30
99.0,14.360108373665811,7.585340047794588,1.3e+30
100.0,14.357126609526713,7.577546228528599,1.3e+30
101.0,14.354154470103074,7.569829625532581,1.3e+30
102.0,14.351191834403378,7.562188660082375,1.3e+30
103.0,14.348238584171792,7.554621800954276,1.3e+30
104.0,14.34529460380022,7.547127562548669,1.3e+30
105.0,14.34235978024401,7.539704503105096,1.3e+30
106.0,14.33943400294113,7.532351223003452,1.3e+30
107.0,14.33651716373462,7.525066363146383,1.3e+30
108.0,14.333609156798175,7.51784860341829,1.3e+30
109.0,14.330709878564708,7.510696661216636,1.3e+30
110.0,14.327819227657722,7.503609290051532,1.3e+30
111.0,14.324937104825391,7.4965852782098334,1.3e+30
112.0,14.322063412877192,7.489623447480243,1.3e+30
113.0,14.319198056622977,7.482722651936074,1.3e+30
114.0,14.316340942814376,7.4758817767726224,1.3e+30
115.0,14.313491980088413,7.4690997371962276,1.3e+30
116.0,14.310651078913233,7.4623754773622775,1.3e+30
117.0,14.307818151535855,7.455707969359624,1.3e+30
118.0,14.304993111931845,7.449096212238995,1.3e+30
119.0,14.302175875756829,7.4425392310831295,1.3e+30
120.0,14.299366360299764,7.436036076116519,1.3e+30
121.0,14.296564484437887,7.429585821852758,1.3e+30
122.0,14.293770168593275,7.423187566277614,1.3e+30
123.0,14.290983334690926,7.416840430066021,1.3e+30
124.0,14.288203906118333,7.410543555831371,1.3e+30
125.0,14.285431807686441,7.404296107405452,1.3e+30
126.0,14.282666965591961,7.3980972691476286,1.3e+30
127.0,14.279909307380976,7.391946245281787,1.3e+30
128.0,14.277158761913778,7.385842259259748,1.3e+30
129.0,14.274415259330892,7.379784553149909,1.3e+30
130.0,14.271678731020232,7.37377238704989,1.3e+30
131.0,14.268949109585353,7.367805038522089,1.3e+30
132.0,14.266226328814744,7.361881802051094,1.3e+30
133.0,14.263510323652119,7.356001988521909,1.3e+30
134.0,14.260801030167682,7.350164924718083,1.3e+30
135.0,14.258098385530309,7.344369952838832,1.3e+30
136.0,14.255402327980617,7.338616430034275,1.3e+30
137.0,14.252712796804897,7.332903727958023,1.3e+30
138.0,14.250029732309851,7.327231232336292,1.3e+30
139.0,14.247353075798138,7.321598342552862,1.3e+30
140.0,14.24468276954466,7.316004471249197,1.3e+30
141.0,14.242018756773591,7.310449043938988,1.3e+30
142.0,14.239360981636102,7.304931498636623,1.3e+30
143.0,14.236709389188762,7.29945128549887,1.3e+30
144.0,14.234063925372595,7.2940078664792996,1.3e+30
145.0,14.231424536992762,7.288600714994839,1.3e+30
146.0,14.228791171698843,7.283229315604027,1.3e+30
147.0,14.226163777965708,7.277893163696412,1.3e+30
148.0,14.223542305074938,7.272591765192665,1.3e+30
149.0,14.220926703096808,7.267324636254992,1.3e+30
150.0,14.218316922872763,7.262091303007363,1.3e+30
151.0,14.215712915998422,7.256891301265224,1.3e+30
152.0,14.213114634807054,7.251724176274282,1.3e+30
153.0,14.210522032353529,7.246589482457992,1.3e+30
154.0,14.207935062398713,7.241486783173427,1.3e+30
155.0,14.205353679394312,7.236415650475164,1.3e+30
156.0,14.202777838468124,7.231375664886922,1.3e+30
157.0,14.200207495409712,7.226366415180603,1.3e+30
158.0,14.197642606656455,7.221387498162475,1.3e+30
159.0,14.195083129279997,7.2164385184662105,1.3e+30
160.0,14.192529020973048,7.211519088352537,1.3e+30
161.0,14.18998024003655,7.206628827515232,1.3e+30
162.0,14.18743674536718,7.201767362893214,1.3e+30
163.0,14.184898496445195,7.196934328488545,1.3e+30
164.0,14.182365453322587,7.192129365190063,1.3e+30
165.0,14.179837576611558,7.18735212060248,1.3e+30
166.0,14.177314827473287,7.182602248880743,1.3e+30
167.0,14.174797167607005,7.177879410569441,1.3e+30
168.0,14.172284559239332,7.173183272447092,1.3e+30
169.0,14.169776965113897,7.1685135073751205,1.3e+30
170.0,14.167274348481229,7.163869794151388,1.3e+30
171.0,14.164776673088891,7.159251817368075,1.3e+30
172.0,14.162283903171875,7.1546592672737805,1.3e+30
173.0,14.15979600344323,7.1500918396396855,1.3e+30
174.0,14.157312939084921,7.145549235629645,1.3e+30
175.0,14.154834675738929,7.141031161674071,1.3e+30
176.0,14.152361179498548,7.136537329347439,1.3e+30
177.0,14.149892416899919,7.132067455249372,1.3e+30
178.0,14.147428354913748,7.127621260889084,1.3e+30
179.0,14.144968960937243,7.123198472573156,1.3e+30
180.0,14.142514202786233,7.118798821296453,1.3e+30
181.0,14.140064048687478,7.114422042636143,1.3e+30
182.0,14.137618467271167,7.110067876648671,1.3e+30
183.0,14.13517742756359,7.105736067769611,1.3e+30
184.0,14.13274089897998,7.101426364716286,1.3e+30
185.0,14.130308851317528,7.09713852039307,1.3e+30
186.0,14.127881254748557,7.092872291799301,1.3e+30
187.0,14.125458079813855,7.088627439939682,1.3e+30
188.0,14.123039297416167,7.084403729737135,1.3e+30
189.0,14.12062487881382,7.080200929947978,1.3e+30
190.0,14.118214795614515,7.0760188130794095,1.3e+30
191.0,14.115809019769245,7.071857155309168,1.3e+30
192.0,14.113407523566352,7.067715736407338,1.3e+30
193.0,14.111010279625726,7.063594339660222,1.3e+30
194.0,14.108617260893118,7.059492751796203,1.3e+30
195.0,14.106228440634599,7.0554107629135565,1.3e+30
196.0,14.103843792431121,7.051348166410127,1.3e+30
197.0,14.101463290173216,7.047304758914839,1.3e+30
198.0,14.099086908055797,7.043280340220951,1.3e+30
199.0,14.09671462057308,7.039274713221046,1.3e+30
200.0,14.09434640251361,7.035287683843645,1.3e+30
201.0,14.091982228955402,7.031319060991457,1.3e+30
202.0,14.089622075261179,7.027368656481169,1.3e+30
203.0,14.087265917073717,7.023436284984765,1.3e+30
204.0,14.084913730311282,7.0195217639722784,1.3e+30
205.0,14.08256549116317,7.015624913656005,1.3e+30
206.0,14.080221176085336,7.01174555693607,1.3e+30
207.0,14.077880761796123,7.007883519347349,1.3e+30
208.0,14.075544225272067,7.004038629007681,1.3e+30
209.0,14.073211543743794,7.000210716567345,1.3e+30
210.0,14.070882694692008,6.996399615159769,1.3e+30
211.0,14.068557655843554,6.992605160353412,1.3e+30
212.0,14.066236405167563,6.988827190104834,1.3e+30
213.0,14.063918920871679,6.98506554471285,1.3e+30
214.0,14.061605181398352,6.981320066773801,1.3e+30
215.0,14.059295165421222,6.97759060113788,1.3e+30
216.0,14.056988851841558,6.97387699486649,1.3e+30
217.0,14.054686219784783,6.970179097190579,1.3e+30
218.0,14.052387248597055,6.966496759469994,1.3e+30
219.0,14.050091917841927,6.962829835153732,1.3e+30
220.0,14.047800207297065,6.959178179741151,1.3e+30
221.0,14.04551209695103,6.955541650744051,1.3e+30
222.0,14.043227567000134,6.9519201076496255,1.3e+30
223.0,14.040946597845338,6.948313411884278,1.3e+30
224.0,14.038669170089225,6.944721426778235,1.3e+30
225.0,14.036395264533029,6.941144017530982,1.3e+30
226.0,14.034124862173716,6.9375810511774745,1.3e+30
227.0,14.031857944201121,6.934032396555086,1.3e+30
228.0,14.029594491995145,6.930497924271327,1.3e+30
229.0,14.027334487122996,6.926977506672252,1.3e+30
230.0,14.025077911336496,6.923471017811593,1.3e+30
231.0,14.02282474656942,6.91997833342055,1.3e+30
232.0,14.0205749749349,6.916499330878258,1.3e+30
233.0,14.018328578722873,6.913033889182891,1.3e+30
234.0,14.016085540397563,6.909581888923405,1.3e+30
235.0,14.013845842595039,6.906143212251889,1.3e+30
236.0,14.011609468120783,6.902717742856499,1.3e+30
237.0,14.009376399947328,6.899305365935005,1.3e+30
238.0,14.007146621211929,6.895905968168869,1.3e+30
239.0,14.004920115214274,6.892519437697896,1.3e+30
240.0,14.002696865414242,6.889145664095414,1.3e+30
241.0,14.000489172722016,6.885790221775913,1.2844672346620165e+30
242.0,13.998309036231532,6.882458550453002,1.269183229129245e+30
243.0,13.996155994219558,6.879150342905236,1.2541429960944086e+30
244.0,13.99402959465929,6.875865297405991,1.2393416681912428e+30
245.0,13.99192939497591,6.872603117601209,1.224774494634076e+30
246.0,13.98985496180933,6.8693635123903345,1.2104368379647861e+30
247.0,13.987805870783859,6.866146195810373,1.1963241709032838e+30
248.0,13.985781706284603,6.862950886922949,1.1824320732978219e+30
249.0,13.983782061240328,6.859777309704295,1.1687562291715844e+30
250.0,13.98180653691261,6.856625192938109,1.1552924238621415e+30
251.0,13.979854742691035,6.853494270111121,1.142036541250493e+30
252.0,13.977926295894287,6.8503842793113865,1.1289845610765539e+30
253.0,13.976020821576881,6.847294963129137,1.1161325563380528e+30
254.0,13.97413795234141,6.844226068560179,1.1034766907699375e+30
255.0,13.97227732815609,6.841177346911724,1.0910132164014872e+30
256.0,13.970438596177457,6.838148553710621,1.0787384711884467e+30
257.0,13.968621410578024,6.835139448613868,1.066648876717594e+30
258.0,13.966825432378762,6.832149795321387,1.0547409359812557e+30
259.0,13.965050329286255,6.829179361490974,1.043011231219377e+30
260.0,13.963295775534345,6.8262279186553645,1.0314564218268452e+30
261.0,13.961561451730171,6.823295242141354,1.0200732423238525e+30
262.0,13.959847044704428,6.820381110990912,1.0088585003871654e+30
263.0,13.958152247365735,6.817485307884253,9.97809074940249e+29
264.0,13.956476758558972,6.814607619064779,9.86921914300273e+29
265.0,13.954820282927473,6.811747834265859,9.76194034380097e+29
266.0,13.953182530778934,6.808905746639397,9.656225169434025e+29
267.0,13.951563217954956,6.806081152686129,9.552045079112098e+29
268.0,13.949962065704078,6.803273852187607,9.449372157180817e+29
269.0,13.94837880055821,6.80048364813981,9.348179097163752e+29
270.0,13.946813154212359,6.797710346688369,9.248439186269674e+29
271.0,13.945264863407548,6.79495375706532,9.150126290349335e+29
272.0,13.943733669816831,6.792213691527381,9.053214839287144e+29
273.0,13.94221931993431,6.789489965295674,8.957679812813632e+29
274.0,13.940721564967063,6.7867823964968945,8.863496726725061e+29
275.0,13.939240160729904,6.78409080610586,8.770641619497121e+29
285.0,13.925274782073096,6.75801625572384,7.91020659868719e+29
295.0,13.912706456338436,6.733361763556061,7.159635759808663e+29
305.0,13.90135317974932,6.70998761337766,6.501858779343712e+29
315.0,13.891061814426932,6.687772911682535,5.9229011406452495e+29
325.0,13.881702743222453,6.666612474476333,5.411247086973971e+29
335.0,13.87316564773555,6.646414312215958,4.957348316152278e+29
345.0,13.865356147142949,6.62709758369985,4.553241912121222e+29
355.0,13.858193102547963,6.608590920412329,4.19225090076999e+29
365.0,13.851606440099046,6.590831045622737,3.8687478369370064e+29
375.0,13.84553538160596,6.573761629613127,3.577966863462195e+29
385.0,13.83992699757089,6.557332335298183,3.31585332922129e+29
395.0,13.834735017059012,6.541498018307905,3.0789427186463114e+29
405.0,13.829918843488603,6.526218053120269,2.8642626112440253e+29
415.0,13.825442736520976,6.511455762632684,2.6692528517878216e+29
425.0,13.821275128702418,6.497177933069528,2.491700207905661e+29
435.0,13.817388052023261,6.483354399648887,2.329684619550939e+29
445.0,13.813756654600782,6.469957691206098,2.1815347744412e+29
455.0,13.810358791620565,6.456962724167855,2.045791225660687e+29
465.0,13.807174677750465,6.444346538018696,1.921175639171938e+29
475.0,13.80418659066978,6.432088065800746,1.8065650470793633e+29
485.0,13.801378617282158,6.420167934312964,1.700970207183845e+29
495.0,13.798736435716298,6.408568289586059,1.603517345593058e+29
505.0,13.796247127449092,6.397272643948234,1.5134326981010098e+29
515.0,13.793899014876844,6.386265741600065,1.4300293761668373e+29
525.0,13.791681520462037,6.375533440111077,1.352696171016827e+29
535.0,13.789585044234748,6.365062605657432,1.2808879795582532e+29
545.0,13.787600856959724,6.354841020156357,1.2141175921855105e+29
555.0,13.785721006716027,6.34485729873191,1.1519486280774676e+29
565.0,13.783938236994874,6.335100816178919,1.093989440479164e+29
575.0,13.782245914717542,6.325561641286194,1.0398878444843885e+29
585.0,13.78063796682082,6.316230478042851,9.893265443617775e+28
595.0,13.779108824261774,6.307098612888735,9.420191575766482e+28
605.0,13.777653372464156,6.298157867285573,8.977067492079705e+28
615.0,13.776266907371578,6.289400554983537,8.561548041226832e+28
625.0,13.774945096392583,6.280819443441224,8.171505755882214e+28
635.0,13.7736839436238,6.2724077189278375,7.8050075841096205e+28
645.0,13.772479758822833,6.264158954897194,7.460294425304644e+28
655.0,13.771329129674953,6.256067083275017,7.135763095567695e+28
665.0,13.770228896959145,6.248126368345575,6.829950402370205e+28
675.0,13.769176132271546,6.240331382962301,6.54151905462052e+28
685.0,13.768168118009084,6.232676986840115,6.2692451732306766e+28
695.0,13.767202329354467,6.225158306715942,6.012007200253871e+28
705.0,13.766276418036606,6.2177707181889,5.768776032607411e+28
715.0,13.765388197668925,6.210509829073263,5.5386062301414935e+28
725.0,13.764535630492375,6.203371464116234,5.320628168040021e+28
735.0,13.763716815371154,6.196351650949065,5.114041020807566e+28
745.0,13.76292997690738,6.189446607154524,4.9181064798728e+28
755.0,13.76217345555686,6.18265272834638,4.732143119510507e+28
765.0,13.761445698641914,6.1759665771677135,4.5555213366746185e+28
775.0,13.760745252169198,6.169384873124665,4.3876587997137705e+28
785.0,13.76007075337103,6.162904483180903,4.228016349034403e+28
795.0,13.759420923897869,6.156522413045733,4.076094299774741e+28
805.0,13.758794563597652,6.150235799095519,3.931429102615657e+28
815.0,13.758190544824782,6.144041900874152,3.7935903241165476e+28
825.0,13.757607807227727,6.137938094123545,3.662177912539823e+28
835.0,13.757045352969712,6.131921864299969,3.5368197191132083e+28
845.0,13.756502242341766,6.125990800536222,3.4171692481567232e+28
855.0,13.755977589731682,6.120142590013419,3.302903612540943e+28
865.0,13.755470559916196,6.1143750127095515,3.193721673604306e+28
875.0,13.754980364647057,6.108685936495,3.0893423469908618e+28
885.0,13.754506259504602,6.103073312547922,2.9895030579193726e+28
895.0,13.75404754099511,6.097535171064752,2.8939583311974783e+28
905.0,13.753603543870543,6.09206961724346,2.8024785028827967e+28
915.0,13.753173638651377,6.086674827518893,2.714848541893896e+28
925.0,13.752757229335085,6.081349046031605,2.6308669711119316e+28
935.0,13.752353751274518,6.076090581312897,2.5503448786088543e+28
945.0,13.751962669211906,6.070897803170496,2.473105010608292e+28
955.0,13.751583475455556,6.065769139760379,2.3989809386458694e+28
965.0,13.75121568818748,6.0607030748316415,2.327816294160217e+28
975.0,13.750858849891344,6.055698145132229,2.2594640644258558e+28
985.0,13.750512525890988,6.050752937964397,2.1937859443446276e+28
995.0,13.75017630299075,6.045866088879679,2.1306517391521852e+28
1005.0,13.749849466643578,6.041036143583444,2.08351097774625e+28
1015.0,13.749528489657248,6.036260496637251,2.0511602532954957e+28
1025.0,13.749212893989025,6.031537868644303,2.019621670700661e+28
1035.0,13.748902537683737,6.026867155083259,1.9888672135711304e+28
1045.0,13.748597283864928,6.022247284958334,1.9588700901184936e+28
1055.0,13.748297000506417,6.01767721946908,1.9296046685597095e+28
1065.0,13.748001560216185,6.0131559507450945,1.9010464165006546e+28
1075.0,13.74771084003183,6.008682500641916,1.8731718440201465e+28
1085.0,13.747424721226864,6.004255919594597,1.8459584501965944e+28
1095.0,13.747143089127167,5.999875285525704,1.8193846728395925e+28
1105.0,13.746865832937022,5.9955397028046615,1.7934298412071738e+28
1115.0,13.746592845574089,5.991248301255595,1.768074131506272e+28
1125.0,13.746324023512836,5.987000235210989,1.7432985249893404e+28
1135.0,13.746059266635887,5.982794682608663,1.719084768474185e+28
1145.0,13.745798478092846,5.97863084412972,1.6954153371269896e+28
1155.0,13.745541564166135,5.974507942375249,1.6722733993603733e+28
1165.0,13.745288434143463,5.970425221079724,1.6496427837092026e+28
1175.0,13.745039000196526,5.966381944359183,1.6275079475568865e+28
1185.0,13.744793177265596,5.962377395992332,1.6058539475940612e+28
1195.0,13.74455088294966,5.958410878732899,1.5846664119000504e+28
1205.0,13.744312037401798,5.95448171365158,1.5639315135452541e+28
1215.0,13.744076563229505,5.9505892395061455,1.5436359456198072e+28
1225.0,13.743844385399706,5.9467328121381815,1.5237668976004558e+28
1235.0,13.743615431148168,5.942911803895226,1.5043120329737083e+28
1245.0,13.743389629893112,5.93912560307697,1.4852594680389473e+28
1255.0,13.743166913152772,5.9353736134043515,1.4665977518203966e+28
1265.0,13.742947214466694,5.931655253510426,1.4483158470216503e+28
1275.0,13.742730469320598,5.927969956451971,1.4304031119609182e+28
1285.0,13.742516615074583,5.92431716924078,1.412849283429268e+28
1295.0,13.742305590894526,5.9206963523937475,1.3956444604179538e+28
