Time,Mass,Radius,Lx
23.0,11.419806757177295,6.41,1.1600000000000076e+30
23.1,11.417736614134888,6.404477353810046,1.154660410481529e+30
23.200000000000003,11.415681070504062,6.398988513907112,1.149368305985163e+30
23.300000000000004,11.413639956022317,6.393533123819314,1.144123062267769e+30
23.400000000000006,11.411613103168733,6.38811083236299,1.1389240659248484e+30
23.500000000000007,11.40960034710794,6.382721293542021,1.1337707141570427e+30
23.60000000000001,11.40760152563546,6.377364166449462,1.128662414542625e+30
23.70000000000001,11.405616479124397,6.372039115171461,1.1235985848158149e+30
23.80000000000001,11.40364505047344,6.366745808693391,1.1185786526507383e+30
23.900000000000013,11.40168708505612,6.361483920808112,1.1136020554508694e+30
24.000000000000014,11.399742430671308,6.356253130026342,1.1086682401437893e+30
24.100000000000016,11.397810937494913,6.351053119489054,1.10377666298111e+30
24.200000000000017,11.395892458032735,6.345883576881851,1.0989267893434096e+30
24.30000000000002,11.39398684707445,6.340744194351281,1.0941180935500337e+30
24.40000000000002,11.392093961648698,6.335634668423017,1.0893500586736234e+30
24.50000000000002,11.390213660979233,6.330554699921862,1.0846221763592339e+30
24.600000000000023,11.38834580644212,6.325503993893555,1.079933946647908e+30
24.700000000000024,11.386490261523925,6.320482259528275,1.0752848778045835e+30
24.800000000000026,11.384646891780909,6.315489210085868,1.070674486150206e+30
24.900000000000027,11.382815564799158,6.310524562822696,1.0661022958979276e+30
25.00000000000003,11.380996150155648,6.3055880389200905,1.0615678389932818e+30
25.10000000000003,11.379188519380213,6.300679363414371,1.0570706549582161e+30
25.20000000000003,11.377392545918394,6.295798265128379,1.052610290738877e+30
25.300000000000033,11.37560810509514,6.290944476604501,1.0481863005570442e+30
25.400000000000034,11.373835074079338,6.286117734039122,1.0437982457651092e+30
25.500000000000036,11.372073331849162,6.281317777218497,1.0394456947045022e+30
25.600000000000037,11.370322759158197,6.276544349455989,1.0351282225674734e+30
25.70000000000004,11.368583238502342,6.271797197530642,1.0308454112621315e+30
25.80000000000004,11.36685465408745,6.267076071627066,1.0265968492806586e+30
25.90000000000004,11.365136891797704,6.26238072527658,1.0223821315706043e+30
26.000000000000043,11.363429839164686,6.257710915299604,1.0182008594091853e+30
26.100000000000044,11.361733385337157,6.2530664017492565,1.0140526402805035e+30
26.200000000000045,11.360047421051489,6.2484469478561255,1.009937087755604e+30
26.300000000000047,11.358371838602759,6.2438523199742075,1.0058538213753003e+30
26.40000000000005,11.35670653181648,6.239282287527933,1.0018024665356893e+30
26.50000000000005,11.355051396020947,6.234736622960323,9.977826543762842e+29
26.60000000000005,11.3534063280202,6.230215101682198,9.937940216707e+29
26.700000000000053,11.351771226067553,6.225717502022414,9.898362107198186e+29
26.800000000000054,11.350145989839733,6.221243605179149,9.859088692473721e+29
26.900000000000055,11.348530520411535,6.216793195172141,9.82011650297879e+29
27.000000000000057,11.346924720231055,6.2123660587959275,9.78144212136872e+29
27.10000000000006,11.345328493095442,6.207961985574013,9.743062181533589e+29
27.20000000000006,11.343741744127172,6.203580767713962,9.704973367644561e+29
27.30000000000006,11.34216437975082,6.199222200063401,9.667172413221412e+29
27.400000000000063,11.34059630767033,6.19488608006688,9.629656100220684e+29
27.500000000000064,11.339037436846768,6.190572207723623,9.592421258143938e+29
27.600000000000065,11.337487677476538,6.18628038554608,9.555464763165605e+29
27.700000000000067,11.335946940970056,6.182010418519338,9.518783537279917e+29
27.800000000000068,11.334415139930869,6.177762114061293,9.482374547466451e+29
27.90000000000007,11.332892188135215,6.173535281983641,9.44623480487379e+29
28.00000000000007,11.331378000512,6.169329734453596,9.410361364020887e+29
28.100000000000072,11.329872493123188,6.165145285956385,9.374751322015626e+29
28.200000000000074,11.328375583144604,6.160981753258451,9.339401817790219e+29
28.300000000000075,11.326887188847119,6.156838955371379,9.304310031352953e+29
28.400000000000077,11.325407229578229,6.15271671351651,9.269473183055922e+29
28.500000000000078,11.323935625744005,6.148614851090242,9.234888532878352e+29
28.60000000000008,11.32247229879141,6.144533193629989,9.200553379725088e+29
28.70000000000008,11.321017171190977,6.140471568780804,9.166465060739927e+29
28.800000000000082,11.319570166419828,6.136429806262608,9.132620950633389e+29
28.900000000000084,11.31813120894504,6.132407737838072,9.099018461024603e+29
29.000000000000085,11.316700224207349,6.128405197281085,9.065655039796938e+29
29.100000000000087,11.315277138605166,6.124422020345827,9.032528170467074e+29
29.200000000000088,11.313861879478921,6.120458044736411,8.999635371567162e+29
29.30000000000009,11.312454375095713,6.116513110077106,8.966974196039777e+29
29.40000000000009,11.311054554634264,6.112587057883095,8.934542230645329e+29
29.500000000000092,11.30966234817017,6.108679731531806,8.902337095381689e+29
29.600000000000094,11.308277686661436,6.104790976234748,8.870356442915659e+29
29.700000000000095,11.306900501934303,6.100920639009866,8.838597958026086e+29
29.800000000000097,11.305530726669339,6.097068568654425,8.807059357058277e+29
29.900000000000098,11.30416829438781,6.0932346157183765,8.775738387389497e+29
30.0000000000001,11.30281313943831,6.089418632478207,8.744632826905256e+29
30.1000000000001,11.301465196983644,6.08562047291127,8.713740483486154e+29
30.200000000000102,11.300124402987976,6.081839992670586,8.683059194505016e+29
30.300000000000104,11.29879069420421,6.078077049060099,8.652586826334108e+29
30.400000000000105,11.297464008161615,6.074331501010365,8.622321273862156e+29
30.500000000000107,11.296144283153692,6.070603209054685,8.592260460020991e+29
30.600000000000108,11.29483145822626,6.066892035305672,8.562402335321553e+29
30.70000000000011,11.293525473165777,6.063197843432242,8.532744877399069e+29
30.80000000000011,11.292226268487871,6.059520498636974,8.503286090567183e+29
30.900000000000112,11.290933785426096,6.055859867633931,8.474024005380825e+29
31.000000000000114,11.289647965920894,6.052215818626822,8.444956678207645e+29
31.100000000000115,11.288368752608756,6.048588221287574,8.41608219080779e+29
31.200000000000117,11.2870960888116,6.044976946735288,8.387398649921848e+29
31.300000000000118,11.285829918526327,6.041381867515531,8.358904186866782e+29
31.40000000000012,11.284570186414584,6.037802857580017,8.330596957139649e+29
31.50000000000012,11.283316837792709,6.034239792266641,8.302475140028964e+29
31.600000000000122,11.282069818621864,6.0306925482798395,8.27453693823352e+29
31.700000000000124,11.280829075498339,6.02716100367131,8.246780577488472e+29
31.800000000000125,11.279594555644046,6.023645037821044,8.219204306198594e+29
31.900000000000126,11.278366206897177,6.020144531418719,8.191806395078461e+29
32.00000000000013,11.27714397770303,6.016659366445362,8.164585136799481e+29
32.10000000000013,11.27592781710501,6.013189426155368,8.137538845643577e+29
32.20000000000013,11.27471767473578,6.0097345950587915,8.110665857163398e+29
32.30000000000013,11.273513500808573,6.006294758903975,8.083964527848901e+29
32.400000000000134,11.272315246108672,6.002869804660426,8.057433234800176e+29
32.500000000000135,11.271122861985024,5.9994596205020265,8.031070375406377e+29
32.600000000000136,11.269936300342014,5.9960640957905,8.004874367030619e+29
32.70000000000014,11.26875551363138,5.992683121059148,7.978843646700717e+29
32.80000000000014,11.267580454844273,5.989316587996893,7.952976670805652e+29
32.90000000000014,11.266411077503456,5.985964389432537,7.927271914797612e+29
33.00000000000014,11.265247335655637,5.98262641931934,7.901727872899527e+29
33.10000000000014,11.264089183863943,5.979302572719796,7.876343057817946e+29
33.200000000000145,11.262936577200518,5.975992745790705,7.851116000461163e+29
33.300000000000146,11.261789471239252,5.972696835768465,7.826045249662483e+29
33.40000000000015,11.26064782204864,5.969414740954614,7.801129371908493e+29
33.50000000000015,11.259511586184752,5.966146360701602,7.776366951072267e+29
33.60000000000015,11.258380720684345,5.962891595398817,7.751756588151383e+29
33.70000000000015,11.257255183058069,5.9596503464587975,7.727296901010638e+29
33.80000000000015,11.25613493128381,5.956422516303716,7.702986524129404e+29
33.900000000000155,11.255019923800134,5.953208008352041,7.678824108353479e+29
34.000000000000156,11.253910119499844,5.950006727005439,7.654808320651373e+29
34.10000000000016,11.252805477723653,5.946818577635874,7.630937843874933e+29
34.20000000000016,11.251705958253956,5.943643466572913,7.607211376524195e+29
34.30000000000016,11.250611521308711,5.940481301091257,7.583627632516413e+29
34.40000000000016,11.249522127535426,5.937331989398434,7.560185340959141e+29
34.50000000000016,11.248437738005238,5.934195440622714,7.536883245927313e+29
34.600000000000165,11.247358314207096,5.931071564801204,7.513720106244226e+29
34.700000000000166,11.246283818042045,5.927960272868141,7.490694695266347e+29
34.80000000000017,11.245214211817599,5.924861476643356,7.467805800671879e+29
34.90000000000017,11.244149458242207,5.921775088820935,7.445052224252985e+29
35.00000000000017,11.243089520419813,5.918701022958029,7.422432781711628e+29
35.10000000000017,11.242034361844507,5.91563919346388,7.399946302458923e+29
35.20000000000017,11.240983946395259,5.912589515588984,7.377591629417952e+29
35.300000000000175,11.239938238330744,5.909551905414437,7.355367618829965e+29
35.400000000000176,11.238897202284248,5.906526279841437,7.3332731400639e+29
35.50000000000018,11.237860803258657,5.903512556580965,7.31130707542916e+29
35.60000000000018,11.236829006621532,5.900510654143597,7.289468319991566e+29
35.70000000000018,11.235801778100258,5.897520491829512,7.267755781392451e+29
35.80000000000018,11.234779083777275,5.894541989718606,7.246168379670809e+29
35.90000000000018,11.233760890085378,5.8915750686607975,7.224705047088449e+29
36.000000000000185,11.23274716380311,5.888619650266451,7.203364727958095e+29
36.100000000000186,11.231737872050205,5.885675656896966,7.182146378474373e+29
36.20000000000019,11.230732982283127,5.882743011655503,7.161048966547626e+29
36.30000000000019,11.229732462290661,5.879821638377843,7.140071471640506e+29
36.40000000000019,11.228736280189583,5.8769114616233775,7.119212884607292e+29
36.50000000000019,11.227744404420402,5.874012406666274,7.098472207535872e+29
36.60000000000019,11.226756803743159,5.871124399486716,7.077848453592343e+29
36.700000000000195,11.225773447233301,5.868247366762315,7.057340646868178e+29
36.800000000000196,11.224794304277617,5.86538123585964,7.036947822229916e+29
36.9000000000002,11.223819344570233,5.862525934825866,7.016669025171317e+29
37.0000000000002,11.222848538108673,5.859681392380546,6.996503311667939e+29
37.1000000000002,11.221881855189991,5.856847537907525,6.976449748034093e+29
37.2000000000002,11.220919266406941,5.854024301446936,6.956507410782132e+29
37.3000000000002,11.219960742644226,5.851211613687353,6.936675386484023e+29
37.400000000000205,11.219006255074797,5.84840940595803,6.916952771635167e+29
37.500000000000206,11.218055775156209,5.84561761022127,6.897338672520414e+29
37.60000000000021,11.217109274627031,5.842836159064891,6.877832205082248e+29
37.70000000000021,11.21616672550332,5.840064985694825,6.858432494791084e+29
37.80000000000021,11.215228100075135,5.837304023927784,6.839138676517649e+29
37.90000000000021,11.214293370903118,5.8345532081840865,6.819949894407404e+29
38.00000000000021,11.213362510815113,5.831812473480534,6.80086530175697e+29
38.100000000000215,11.21243549290285,5.829081755423427,6.781884060892521e+29
38.200000000000216,11.21151229051867,5.826360990201659,6.7630053430501e+29
38.30000000000022,11.210592877272298,5.823650114579923,6.744228328257843e+29
38.40000000000022,11.209677227027678,5.820949065892014,6.725552205220053e+29
38.50000000000022,11.208765313899834,5.8182577820342125,6.706976171203099e+29
38.60000000000022,11.2078571122518,5.815576201458782,6.688499431923115e+29
38.70000000000022,11.206952596691576,5.812904263167541,6.670121201435446e+29
38.800000000000225,11.206051742069146,5.810241906705535,6.651840702025838e+29
38.900000000000226,11.205154523473528,5.807589072154801,6.633657164103308e+29
39.00000000000023,11.204260916229874,5.804945700128206,6.615569826094685e+29
39.10000000000023,11.203370895896613,5.802311731763394,6.597577934340802e+29
39.20000000000023,11.20248443826263,5.799687108716784,6.579680742994254e+29
39.30000000000023,11.201601519344491,5.797071773157686,6.561877513918783e+29
39.40000000000023,11.200722115383712,5.794465667762482,6.544167516590174e+29
39.500000000000234,11.19984620284406,5.79186873570889,6.526550027998685e+29
39.600000000000236,11.1989737584089,5.789280920670302,6.509024332552974e+29
39.70000000000024,11.198104758978575,5.786702166810212,6.491589721985491e+29
39.80000000000024,11.197239181667825,5.784132418776705,6.474245495259306e+29
39.90000000000024,11.196377003803251,5.781571621697045,6.456990958476362e+29
40.00000000000024,11.195518202920802,5.779019721172306,6.43982542478711e+29
40.10000000000024,11.194662756763313,5.776476663272112,6.422748214301511e+29
40.200000000000244,11.193810643278063,5.77394239452941,6.405758654001395e+29
40.300000000000246,11.192961840614382,5.771416861935342,6.388856077654112e+29
40.40000000000025,11.192116327121282,5.768900012934189,6.372039825727504e+29
40.50000000000025,11.191274081345126,5.766391795418354,6.355309245306138e+29
40.60000000000025,11.190435082027332,5.763892157723445,6.338663690008784e+29
40.70000000000025,11.1895993081021,5.7614010486234,6.3221025199071386e+29
40.80000000000025,11.188766738694186,5.758918417325695,6.3056251014457465e+29
40.900000000000254,11.187937353116697,5.756444213466609,6.289230807363102e+29
41.000000000000256,11.187111130868916,5.753978387106551,6.272919016613939e+29
41.10000000000026,11.186288051634165,5.751520888725446,6.256689114292639e+29
41.20000000000026,11.18546809527769,5.749071669218194,6.240540491557792e+29
41.30000000000026,11.184651241844584,5.7466306798901785,6.224472545557848e+29
41.40000000000026,11.183837471557727,5.744197872452834,6.208484679357866e+29
41.50000000000026,11.183026764815768,5.741773199019285,6.192576301867329e+29
41.600000000000264,11.182219102191125,5.739356612100027,6.176746827769011e+29
41.700000000000266,11.181414464428016,5.736948064598666,6.160995677448886e+29
41.80000000000027,11.180612832440522,5.734547509807731,6.145322276927037e+29
41.90000000000027,11.179814187310662,5.7321549014045186,6.1297260577895826e+29
42.00000000000027,11.179018510286514,5.729770193447004,6.114206457121579e+29
42.10000000000027,11.178225782780348,5.7273933403698045,6.098762917440884e+29
42.20000000000027,11.177435986366786,5.72502429698019,6.083394886632975e+29
42.300000000000274,11.176649102780992,5.722663018454151,6.068101817886708e+29
42.400000000000276,11.175865113916883,5.720309460332521,6.0528831696309806e+29
42.50000000000028,11.175084001825367,5.717963578517128,6.037738405472311e+29
42.60000000000028,11.174305748712598,5.71562532926703,6.022666994133304e+29
42.70000000000028,11.173530336938267,5.713294669194765,6.007668409391977e+29
42.80000000000028,11.1727577490139,5.710971555262663,5.992742130021972e+29
42.90000000000028,11.171987967601192,5.708655944779218,5.977887639733583e+29
43.000000000000284,11.171220975510357,5.706347795395477,5.963104427115635e+29
43.100000000000286,11.170456755698503,5.704047065101508,5.948391985578174e+29
43.20000000000029,11.169695291268024,5.70175371222288,5.933749813295964e+29
43.30000000000029,11.168936565465021,5.699467695417218,5.919177413152767e+29
43.40000000000029,11.168180561677733,5.697188973670771,5.904674292686414e+29
43.50000000000029,11.167427263435002,5.694917506295063,5.890239964034627e+29
43.60000000000029,11.166676654404744,5.692653252923531,5.8758739438816106e+29
43.700000000000294,11.165928718392456,5.690396173508265,5.861575753405373e+29
43.800000000000296,11.165183439339724,5.688146228316743,5.8473449182257764e+29
43.9000000000003,11.16444080132277,5.685903377928632,5.8331809683533145e+29
44.0000000000003,11.163700788551004,5.6836675832326184,5.819083438138582e+29
44.1000000000003,11.162963385365597,5.681438805423276,5.805051866222454e+29
44.2000000000003,11.162228576238078,5.67921700599798,5.7910857954869324e+29
44.3000000000003,11.16149634576895,5.677002146753859,5.777184773006682e+29
44.400000000000304,11.160766678686308,5.674794189784775,5.763348350001213e+29
44.500000000000306,11.160039559844503,5.672593097478357,5.7495760817877276e+29
44.60000000000031,11.159314974222792,5.670398832513044,5.735867527734597e+29
44.70000000000031,11.158592906924031,5.668211357855201,5.722222251215478e+29
44.80000000000031,11.157873343173371,5.666030636756238,5.708639819564048e+29
44.90000000000031,11.15715626831697,5.663856632749779,5.695119804029342e+29
45.00000000000031,11.15644166782073,5.661689309648862,5.6816617797317136e+29
45.100000000000314,11.155729527269044,5.6595286315431785,5.66826532561936e+29
45.200000000000315,11.15501983236356,5.657374562796338,5.654930024425452e+29
45.30000000000032,11.154312568921963,5.655227068043166,5.6416554626258294e+29
45.40000000000032,11.153607722876767,5.653086112187055,5.62844123039726e+29
45.50000000000032,11.152905280274128,5.650951660397304,5.615286921576258e+29
45.60000000000032,11.152205227272667,5.648823678106535,5.6021921336184476e+29
45.70000000000032,11.151507550142314,5.646702131008118,5.5891564675584666e+29
45.800000000000324,11.150812235263162,5.644586985053629,5.576179527970405e+29
45.900000000000325,11.150119269124335,5.64247820645034,5.5632609229287565e+29
46.00000000000033,11.14942863832287,5.640375761658736,5.550400263969894e+29
46.10000000000033,11.148740329562619,5.638279617390072,5.537597166054046e+29
46.20000000000033,11.148054329653153,5.63618974060394,5.524851247527778e+29
46.30000000000033,11.147370625508692,5.634106098505885,5.512162130086956e+29
46.40000000000033,11.146689204147043,5.632028658545037,5.499529438740204e+29
46.500000000000334,11.146010052688547,5.629957388411773,5.486952801772831e+29
46.600000000000335,11.145333158355045,5.627892256035407,5.4744318507112304e+29
46.70000000000034,11.144658508468854,5.6258332295819065,5.461966220287737e+29
46.80000000000034,11.143986090451758,5.623780277451644,5.44955554840595e+29
46.90000000000034,11.143315891824006,5.621733368277155,5.4371994761064965e+29
47.00000000000034,11.142647900203327,5.619692470920942,5.424897647533228e+29
47.10000000000034,11.141982103303956,5.617657554473294,5.412649709899875e+29
47.200000000000344,11.141318488935672,5.615628588250138,5.400455313457106e+29
47.300000000000345,11.140657045002849,5.613605541790907,5.388314111460028e+29
47.40000000000035,11.13999775950351,5.611588384856438,5.3762257601360836e+29
47.50000000000035,11.139340620528406,5.609577087426883,5.3641899186533816e+29
47.60000000000035,11.138685616260096,5.6075716196996765,5.3522062490894014e+29
47.70000000000035,11.13803273497204,5.605571952087478,5.340274416400129e+29
47.80000000000035,11.137381965027707,5.603578055216181,5.328394088389553e+29
47.900000000000354,11.13673329487969,5.6015898999229226,5.3165649356795675e+29
48.000000000000355,11.136086713068831,5.599607457254116,5.304786631680247e+29
48.10000000000036,11.13544220822336,5.597630698463521,5.293058852560496e+29
48.20000000000036,11.134799769058038,5.595659595010311,5.281381277219071e+29
48.30000000000036,11.13415938437332,5.593694118557185,5.2697535872559654e+29
48.40000000000036,11.133521043054516,5.591734240968494,5.258175466944147e+29
48.50000000000036,11.132884734070975,5.589779934308382,5.2466466032016575e+29
48.600000000000364,11.132250446475265,5.587831170838951,5.235166685564056e+29
48.700000000000365,11.131618169402369,5.585887923018453,5.2237354061572064e+29
48.80000000000037,11.1309878920689,5.5839501634995,5.212352459670397e+29
