Time,Mass,Radius,Lx
23.0,10.922479985220718,5.59,1.3e+30
23.1,10.919689484937328,5.582154925748904,1.2752474159660922e+30
23.200000000000003,10.916960903423226,5.574447421126376,1.2510700187002163e+30
23.300000000000004,10.914292462656972,5.566874007770032,1.2274520488710872e+30
23.400000000000006,10.911682447970179,5.559431316811541,1.204378243952064e+30
23.500000000000007,10.909129205341028,5.552116084783975,1.1818338205272531e+30
23.60000000000001,10.906631138822512,5.544925149705485,1.159804457299554e+30
23.70000000000001,10.904186708097795,5.537855447330783,1.1382762787699839e+30
23.80000000000001,10.90179442615552,5.530904007562359,1.117235839559073e+30
23.900000000000013,10.899452857078357,5.524067951013692,1.0966701093425096e+30
24.000000000000014,10.897160613938508,5.517344485717258,1.0765664583745275e+30
24.100000000000016,10.894916356794294,5.510730903970462,1.0569126435737776e+30
24.200000000000017,10.892718790782258,5.504224579312934,1.0376967951476133e+30
24.30000000000002,10.890566664299625,5.497822963629063,1.0189074037318373e+30
24.40000000000002,10.88845876727221,5.4915235843698476,1.0005333080240303e+30
24.50000000000002,10.88639392950323,5.485324041888618,9.825636828895939e+29
24.600000000000023,10.884371019098666,5.479222006885227,9.64988027920604e+29
24.700000000000024,10.88238894096517,5.473215217953841,9.477961564284822e+29
24.800000000000026,10.880446635376677,5.467301479229504,9.309781848523675e+29
24.900000000000027,10.878543076606148,5.4614786581290184,9.145245225658937e+29
25.00000000000003,10.87667727161906,5.455744683181838,8.9842586206586e+29
25.10000000000003,10.874848258825475,5.450097541946949,8.826731695270362e+29
25.20000000000003,10.873055106887676,5.444535279011857,8.672576757080504e+29
25.300000000000033,10.871296913580556,5.439055994070017,8.521708671939781e+29
25.400000000000034,10.869572804702093,5.433657840073252,8.37404477961903e+29
25.500000000000036,10.867881933031393,5.428339021455802,8.229504812563264e+29
25.600000000000037,10.866223477331944,5.423097792426921,8.088010817618802e+29
25.70000000000004,10.864596641397819,5.417932455328962,7.949487080613647e+29
25.80000000000004,10.863000653140734,5.412841359058136,7.813860053676446e+29
25.90000000000004,10.861434763715952,5.407822897545241,7.68105828518451e+29
26.000000000000043,10.85989824668515,5.402875508293755,7.551012352236112e+29
26.100000000000044,10.858390397214462,5.397997670972872,7.423654795546813e+29
26.200000000000045,10.856910531306006,5.393187906063087,7.298920056673982e+29
26.300000000000047,10.855457985061305,5.3884447735521785,7.176744417477727e+29
26.40000000000005,10.854032113975082,5.383766871679383,7.057065941730487e+29
26.50000000000005,10.852632292258003,5.379152835725804,6.939824418791223e+29
26.60000000000005,10.85125791218701,5.374601336849084,6.824961309263782e+29
26.700000000000053,10.849908383481967,5.370111080960531,6.712419692562433e+29
26.800000000000054,10.848583132707383,5.36568080764293,6.602144216310775e+29
26.900000000000055,10.847281602698073,5.361309289107345,6.494081047503424e+29
27.000000000000057,10.846003252007677,5.356995329187384,6.388177825362774e+29
27.10000000000006,10.84474755437895,5.352737762369321,6.284383615826022e+29
27.20000000000006,10.8435139982349,5.348535452856673,6.1826488676003266e+29
27.30000000000006,10.842302086189791,5.344387293667827,6.082925369726546e+29
27.400000000000063,10.841111334579141,5.3402922057654045,5.9851662105945e+29
27.500000000000064,10.839941273007879,5.33624913721607,5.88932573835504e+29
27.600000000000065,10.838791443915847,5.332257062379606,5.795359522676454e+29
27.700000000000067,10.837661402159888,5.328314981126066,5.7032243177949045e+29
27.800000000000068,10.836550714611805,5.324421918079937,5.612878026810644e+29
27.90000000000007,10.835458959771488,5.320576921890217,5.524279667183711e+29
28.00000000000007,10.834385727394569,5.316779064525426,5.437389337384708e+29
28.100000000000072,10.833330618133967,5.313027440592566,5.3521681846580304e+29
28.200000000000074,10.832293243194753,5.309321166679127,5.268578373856659e+29
28.300000000000075,10.831273224001732,5.305659380717209,5.18658305730925e+29
28.400000000000077,10.830270191879253,5.302041241368988,5.106146345681845e+29
28.500000000000078,10.829283787742689,5.298465927432633,5.027233279798007e+29
28.60000000000008,10.828313661801136,5.294932637267962,4.9498098033826454e+29
28.70000000000008,10.82735947327084,5.291440588241064,4.873842736696151e+29
28.800000000000082,10.826420890098918,5.287989016187163,4.7992997510267955e+29
28.900000000000084,10.825497588696955,5.284577174891087,4.726149344010585e+29
29.000000000000085,10.824589253684069,5.281204335584643,4.6543608157490084e+29
29.100000000000087,10.82369557763906,5.277869786460295,4.5839042456962184e+29
29.200000000000088,10.822816260861275,5.2745728322005405,4.514750470288339e+29
29.30000000000009,10.821951011139832,5.271312793522408,4.446871061288627e+29
29.40000000000009,10.821099543530892,5.268089006736519,4.3802383048232406e+29
29.500000000000092,10.820261580142624,5.264900823320206,4.3148251810833335e+29
29.600000000000094,10.819436849927598,5.261747609504146,4.2506053446701296e+29
29.700000000000095,10.818625088482273,5.258628745872053,4.187553105560535e+29
29.800000000000097,10.817826037853335,5.255543626972936,4.1256434106716715e+29
29.900000000000098,10.817039446350599,5.2524916609454975,4.064851826003586e+29
30.0000000000001,10.81626506836623,5.249472269154221,4.0051545193401116e+29
30.1000000000001,10.815502664200034,5.2464848858367485,3.94652824348869e+29
30.200000000000102,10.81475199989059,5.243528957762143,3.888950320040601e+29
30.300000000000104,10.81401284705199,5.24060394389965,3.832398623633823e+29
30.400000000000105,10.813284982715995,5.237709315097607,3.7768515667013476e+29
30.500000000000107,10.812568189179379,5.2348445537721355,3.7222880846884595e+29
30.600000000000108,10.811862253856274,5.232009153605267,3.668687621723067e+29
30.70000000000011,10.811166969135344,5.22920261925222,3.616030116723792e+29
30.80000000000011,10.810482132241576,5.226424466057445,3.564295989931064e+29
30.900000000000112,10.809807545102547,5.223674219779207,3.513466129847021e+29
31.000000000000114,10.809143014218991,5.220951416322384,3.463521880570546e+29
31.100000000000115,10.808488350539498,5.2182556014791786,3.414445029514244e+29
31.200000000000117,10.807843369339215,5.215586330677536,3.3662177954906755e+29
31.300000000000118,10.807207890102381,5.212943168736944,3.318822817155595e+29
31.40000000000012,10.806581736408576,5.2103256896314285,3.27224314179641e+29
31.50000000000012,10.805964735822537,5.2077334762594445,3.226462214454486e+29
31.600000000000122,10.805356719787417,5.205166120220484,3.181463867370334e+29
31.700000000000124,10.80475752352137,5.202623221598152,3.1372323097411212e+29
31.800000000000125,10.804166985917343,5.200104388749514,3.0937521177803094e+29
31.900000000000126,10.803584949445938,5.197609238100476,3.0510082250695967e+29
32.00000000000013,10.803011260061279,5.195137393947055,3.008985913193684e+29
32.10000000000013,10.802445767109743,5.192688488262295,2.967670802648728e+29
32.20000000000013,10.80188832324147,5.19026216050868,2.927048844015658e+29
32.30000000000013,10.80133878432455,5.1878580574558395,2.887106309389852e+29
32.400000000000134,10.8007970093618,5.185475833003419,2.847829784058959e+29
32.500000000000135,10.800262860410042,5.183115148008897,2.8092061584209465e+29
32.600000000000136,10.799736202501787,5.1807756701202194,2.7712226201347297e+29
32.70000000000014,10.799216903569253,5.178457073613113,2.7338666464959975e+29
32.80000000000014,10.798704834370632,5.176159039232895,2.697125997031113e+29
32.90000000000014,10.798199868418541,5.173881254040672,2.6609887063022138e+29
33.00000000000014,10.797701881910557,5.171623411263743,2.6254430769168613e+29
33.10000000000014,10.797210753661801,5.169385210150141,2.5904776727358407e+29
33.200000000000145,10.79672636503948,5.167166355827135,2.556081312272905e+29
33.300000000000146,10.796248599899315,5.164966559163563,2.5222430622804853e+29
33.40000000000015,10.79577734452383,5.162785536635933,2.4889522315155983e+29
33.50000000000015,10.79531248756239,5.160623010198113,2.4561983646803512e+29
33.60000000000015,10.794853919972972,5.158478707154541,2.423971236531668e+29
33.70000000000015,10.794401534965594,5.156352360036832,2.392260846155017e+29
33.80000000000015,10.793955227947345,5.1542437064836815,2.3610574113971066e+29
33.900000000000155,10.793514896468974,5.152152489123958,2.330351363452682e+29
34.000000000000156,10.793080440172986,5.150078455462907,2.3001333416007166e+29
34.10000000000016,10.792651760743187,5.148021357771341,2.2703941880854615e+29
34.20000000000016,10.792228761855649,5.145980952977775,2.241124943137937e+29
34.30000000000016,10.791811349131027,5.143957002563363,2.212316840133641e+29
34.40000000000016,10.79139943008821,5.141949272459595,2.183961300882343e+29
34.50000000000016,10.790992914099244,5.1399575329486495,2.156049931046002e+29
34.600000000000165,10.790591712345494,5.137981558566341,2.128574515680966e+29
34.700000000000166,10.790195737775012,5.136021128007547,2.101527014900721e+29
34.80000000000017,10.789804905061063,5.134076024034117,2.074899559655616e+29
34.90000000000017,10.789419130561784,5.132146033385108,2.0486844476260637e+29
35.00000000000017,10.78903833228093,5.130230946689325,2.0228741392258683e+29
35.10000000000017,10.788662429829671,5.128330558380084,1.9974612537124098e+29
35.20000000000017,10.788291344389439,5.126444666612162,1.9724385654005453e+29
35.300000000000175,10.78792499867574,5.124573073180814,1.947798999977169e+29
35.400000000000176,10.787563316902952,5.122715583442863,1.923535630913485e+29
35.50000000000018,10.787206224750049,5.1208720062397495,1.8996416759721296e+29
35.60000000000018,10.786853649327231,5.1190421538225195,1.8761104938063863e+29
35.70000000000018,10.786505519143432,5.117225841778677,1.852935580648803e+29
35.80000000000018,10.786161764074693,5.115422888960864,1.8301105670866325e+29
35.90000000000018,10.785822315333345,5.113633117417296,1.8076292149215757e+29
36.000000000000185,10.785487105438005,5.111856352323925,1.7854854141114013e+29
36.100000000000186,10.785156068184353,5.1100924219182655,1.7636731797910845e+29
36.20000000000019,10.784829138616656,5.108341157434845,1.742186649371188e+29
36.30000000000019,10.784506253000034,5.106602393042232,1.7210200797112718e+29
36.40000000000019,10.784187348793433,5.104875965781597,1.7001678443661947e+29
36.50000000000019,10.783872364623294,5.103161715506776,1.6796244309032354e+29
36.60000000000019,10.783561240257887,5.101459484825752,1.6593844382880184e+29
36.700000000000195,10.783253916582305,5.099769119043598,1.639442574337305e+29
36.800000000000196,10.78295033557408,5.098090466106734,1.6197936532367596e+29
36.9000000000002,10.782650440279426,5.096423376548564,1.600432593121863e+29
37.0000000000002,10.78235417479007,5.094767703436402,1.5813544137202013e+29
37.1000000000002,10.782061484220666,5.093123302319629,1.5625542340534127e+29
37.2000000000002,10.781772314686771,5.09149003117912,1.5440272701971278e+29
37.3000000000002,10.781486613283375,5.089867750377849,1.525768833097287e+29
37.400000000000205,10.781204328063954,5.088256322612655,1.5077743264412714e+29
37.500000000000206,10.780925408020043,5.086655612867149,1.4900392445823306e+29
37.60000000000021,10.780649803061317,5.085065488365716,1.4725591705158318e+29
37.70000000000021,10.780377463996153,5.083485818528592,1.4553297739059074e+29
37.80000000000021,10.780108342512671,5.081916474927991,1.4383468091611125e+29
37.90000000000021,10.77984239116023,5.080357331245232,1.4216061135577536e+29
38.00000000000021,10.779579563331389,5.078808263228895,1.405103605409581e+29
38.100000000000215,10.779319813244284,5.0772691486538895,1.3888352822825872e+29
38.200000000000216,10.779063095925444,5.0757398672815,1.3727972192536795e+29
38.30000000000022,10.778809367193016,5.074220300820341,1.3569855672120395e+29
38.40000000000022,10.778558583640388,5.0727103328881835,1.3413965512020178e+29
38.50000000000022,10.778310702620203,5.071209848974668,1.3260264688064378e+29
38.60000000000022,10.778065682228762,5.06971873640486,1.3108716885692269e+29
38.70000000000022,10.777823481290788,5.068236884303629,1.2959286484563163e+29
38.800000000000225,10.777584059344548,5.066764183560817,1.2811938543537882e+29
38.900000000000226,10.777347376627333,5.06530052679721,1.2666638786022706e+29
39.00000000000023,10.777113394061276,5.0638458083312665,1.2523353585666222e+29
39.10000000000023,10.776882073239499,5.062399924146565,1.2382049952399632e+29
39.20000000000023,10.776653376412584,5.060962771860015,1.2242695518811458e+29
39.30000000000023,10.77642726647536,5.059534250690738,1.2105258526847795e+29
40.30000000000023,10.774300718242305,5.0457026645863525,1.0829771723569626e+29
41.30000000000023,10.77239636576842,5.0326341377157435,9.715156968015083e+28
42.30000000000023,10.770685963143196,5.020250129095947,8.737936953587778e+28
43.30000000000023,10.769139173863755,5.008468705881609,8.10074609353995e+28
44.30000000000023,10.767651460900305,4.99704337469964,8.021604503724955e+28
45.30000000000023,10.766188561674937,4.9858866012880885,7.944977159597253e+28
46.30000000000023,10.764749536158888,4.974986268557292,7.870731276368148e+28
47.30000000000023,10.763333499300648,4.964331054688715,7.798743757570443e+28
48.30000000000023,10.76193961672403,4.95391036534719,7.72890030108214e+28
49.30000000000023,10.7605671008444,4.94371427294444,7.661094604200256e+28
50.30000000000023,10.75921520735485,4.933733462093458,7.595227655028849e+28
51.30000000000023,10.757883232040443,4.92395918051305,7.531207099300512e+28
52.30000000000023,10.756570507884131,4.914383194743151,7.468946673305094e+28
53.30000000000023,10.755276402432619,4.9049977501171895,7.408365694906661e+28
54.30000000000023,10.754000315394414,4.895795534510676,7.349388605732938e+28
55.30000000000023,10.7527416764457,4.886769645447231,7.291944558555591e+28
56.30000000000023,10.751499943222658,4.877913560196438,7.23596704467324e+28
57.30000000000023,10.75027459948138,4.8692211085434725,7.181393556785298e+28
58.30000000000023,10.74906515340869,4.860686447949559,7.1281652834226065e+28
59.30000000000023,10.747871136069183,4.852304040856284,7.07622683149625e+28
60.30000000000023,10.746692099975338,4.844068633915827,7.02552597395163e+28
61.30000000000023,10.745527617769135,4.835975238954737,6.97601341988187e+28
62.30000000000023,10.744377281004775,4.828019115500747,6.927642604771618e+28
63.30000000000023,10.743240699023278,4.820195754721434,6.8803694988169825e+28
64.30000000000024,10.742117497910684,4.812500864640283,6.834152431505767e+28
65.30000000000024,10.741007319532443,4.804930356510356,6.788951930849723e+28
66.30000000000024,10.739909820637362,4.797480332238709,6.744730575841549e+28
67.30000000000024,10.738824672025105,4.7901470727659685,6.70145286086765e+28
68.30000000000024,10.737751557771896,4.782927027315506,6.65908507094629e+28
69.30000000000024,10.736690174509533,4.775816803435408,6.617595166782465e+28
70.30000000000024,10.73564023075336,4.768813157764216,6.576952678737915e+28
71.30000000000024,10.734601446275205,4.761912987458397,6.537128608908958e+28
72.30000000000024,10.733573551517702,4.7551133222254975,6.49809534058822e+28
73.30000000000024,10.732556287046732,4.748411316912465,6.459826554459927e+28
74.30000000000024,10.731549403039002,4.741804244603436,6.422297150943756e+28
75.30000000000024,10.7305526588021,4.7352894901856315,6.385483178160182e+28
76.30000000000024,10.729565822324526,4.728864544345813,6.34936176504178e+28
77.30000000000024,10.728588669853488,4.722526997963277,6.313911059160802e+28
78.30000000000024,10.727620985498412,4.716274536868427,6.279110168884314e+28
79.30000000000024,10.72666256085827,4.710104936938713,6.24493910950469e+28
80.30000000000024,10.725713194671041,4.704016059506291,6.21137875302599e+28
81.30000000000024,10.724772692483727,4.698005847053965,6.1784107813160555e+28
82.30000000000024,10.72384086634146,4.692072319177994,6.146017642360415e+28
83.30000000000024,10.722917534494407,4.686213568798188,6.114182509377757e+28
84.30000000000024,10.722002521121237,4.680427758597393,6.082889242577934e+28
85.30000000000024,10.72109565606803,4.674713117673907,6.052122353362627e+28
86.30000000000024,10.720196774601607,4.669067938391782,6.021866970786073e+28
87.30000000000024,10.719305717176306,4.663490573415129,5.992108810108824e+28
88.30000000000024,10.718422329213347,4.657979432913745,5.962834143291625e+28
89.30000000000024,10.717546460891963,4.652532981928305,5.93402977128928e+28
90.30000000000024,10.716677966951549,4.647149737884367,5.905682998015891e+28
91.30000000000024,10.715816706504118,4.641828268245176,5.877781605863404e+28
92.30000000000024,10.714962542856444,4.636567188294164,5.850313832664924e+28
93.30000000000024,10.71411534334128,4.631365159038598,5.8232683500028866e+28
94.30000000000024,10.71327497915709,4.6262208852265605,5.796634242770139e+28
95.30000000000024,10.712441325215785,4.621133113469981,5.770400989899111e+28
96.30000000000024,10.711614259997999,4.616100630467039,5.744558446180868e+28
97.30000000000024,10.71079366541543,4.611122261317647,5.719096825101788e+28
98.30000000000024,10.709979426679851,4.60619686792629,5.694006682631122e+28
99.30000000000024,10.709171432178403,4.601323347486812,5.669278901897668e+28
100.30000000000024,10.708369573354798,4.5965006310441865,5.6449046786984055e+28
101.30000000000024,10.707573744596104,4.591727682128621,5.620875507786129e+28
102.30000000000024,10.706783843124798,4.587003495457683,5.597183169886971e+28
103.30000000000024,10.705999768895788,4.582327095702446,5.573819719402276e+28
104.30000000000024,10.705221424498136,4.577697536313888,5.550777472752484e+28
105.30000000000024,10.704448715061215,4.573113898406065,5.528048997323751e+28
106.30000000000024,10.703681548165072,4.568575289692795,5.505627100980718e+28
107.30000000000024,10.702919833754759,4.564080843474818,5.483504822111426e+28
108.30000000000024,10.702163484058428,4.55962971767457,5.4616754201726975e+28
109.30000000000024,10.701412413508994,4.555221093915968,5.440132366706453e+28
110.30000000000024,10.700666538669172,4.550854176646627,5.4188693367994575e+28
111.30000000000024,10.699925778159713,4.5465281923002685,5.397880200960784e+28
112.30000000000024,10.699190052590689,4.54224238849709,5.377159017393054e+28
113.30000000000024,10.698459284495652,4.53799603328008,5.356700024635007e+28
114.30000000000024,10.69773339826854,4.53378841438534,5.336497634554492e+28
115.30000000000024,10.697012320103177,4.529618838544618,5.316546425672269e+28
116.30000000000024,10.696295977935254,4.525486630818378,5.296841136798301e+28
117.30000000000024,10.695584301386653,4.521391133957806,5.277376660963341e+28
118.30000000000024,10.69487722171202,4.517331707794274,5.258148039629755e+28
119.30000000000024,10.694174671747449,4.513307728654837,5.239150457166469e+28
120.30000000000024,10.69347658586122,4.50931858880247,5.220379235573905e+28
121.30000000000024,10.692782899906437,4.505363695899786,5.201829829445614e+28
122.30000000000024,10.69209355117553,4.501442472495057,5.183497821154129e+28
123.30000000000024,10.691408478356502,4.4975543555294735,5.165378916249331e+28
124.30000000000024,10.690727621490847,4.4936987958645425,5.147468939058307e+28
125.30000000000024,10.690050921933068,4.489875257828699,5.129763828476312e+28
126.30000000000024,10.689378322311718,4.486083218782177,5.1122596339391165e+28
127.30000000000024,10.688709766491892,4.482322168699261,5.094952511567545e+28
128.30000000000024,10.68804519953911,4.478591609767111,5.077838720475544e+28
129.30000000000024,10.68738456768453,4.474891056000372,5.060914619233648e+28
130.30000000000024,10.686727818291427,4.47122003287082,5.04417666248014e+28
131.30000000000024,10.686074899822884,4.467578076951371,5.0276213976726805e+28
132.30000000000024,10.685425761810645,4.463964735573754,5.0112454619735365e+28
133.30000000000024,10.684780354825078,4.460379566499268,4.995045579261974e+28
