Time,Mass,Radius,Lx
23.0,10.922479985220718,5.59,1.4400000000000044e+30
23.1,10.919392273992964,5.5815124170864445,1.4330151463418038e+30
23.200000000000003,10.916333959770666,5.573090199021468,1.4260941266342146e+30
23.300000000000004,10.913304610703857,5.564732534617658,1.4192360861134417e+30
23.400000000000006,10.910303803374546,5.556438626305422,1.41244018506433e+30
23.500000000000007,10.907331122593169,5.548207689848319,1.4057055984925302e+30
23.60000000000001,10.904386161200842,5.540038954065439,1.399031515805166e+30
23.70000000000001,10.901468519877252,5.531931660560633,1.3924171404997456e+30
23.80000000000001,10.898577806953984,5.523885063458409,1.385861689861072e+30
23.900000000000013,10.895713638233115,5.5158984291462865,1.3793643946659136e+30
24.000000000000014,10.892875636810903,5.507971036023449,1.3729244988952041e+30
24.100000000000016,10.890063432906402,5.500102174255497,1.3665412594535502e+30
24.200000000000017,10.88727666369486,5.492291145535171,1.360213945895832e+30
24.30000000000002,10.884514973145722,5.484537262848814,1.3539418401606892e+30
24.40000000000002,10.881778011865107,5.476839850248476,1.3477242363106877e+30
24.50000000000002,10.879065436942621,5.469198242629469,1.3415604402789818e+30
24.600000000000023,10.876376911802359,5.461611785513244,1.3354497696222713e+30
24.700000000000024,10.873712106057958,5.4540798348354285,1.3293915532798852e+30
24.800000000000026,10.871070695371596,5.44660175673887,1.323385131338805e+30
24.900000000000027,10.868452361316793,5.439176927371605,1.3174298548044668e+30
25.00000000000003,10.865856791244903,5.431804732689553,1.3115250853771698e+30
25.10000000000003,10.86328367815519,5.424484568263846,1.3056701952339382e+30
25.20000000000003,10.860732720568357,5.417215839092663,1.2998645668156794e+30
25.300000000000033,10.85820362240345,5.409997959417435,1.2941075926194913e+30
25.400000000000034,10.855696092858002,5.402830352543324,1.288398674995971e+30
25.500000000000036,10.853209846291358,5.395712450663854,1.282737225951389e+30
25.600000000000037,10.850744602111039,5.388643694689566,1.2771226669545936e+30
25.70000000000004,10.848300084662082,5.381623534080614,1.271554428748509e+30
25.80000000000004,10.845876023119269,5.374651426683194,1.2660319511661094e+30
25.90000000000004,10.843472151382137,5.367726838569688,1.2605546829507359e+30
26.000000000000043,10.841088207972708,5.360849243882454,1.2551220815806473e+30
26.100000000000044,10.838723935935837,5.354018124681129,1.2497336130976808e+30
26.200000000000045,10.836379082742123,5.347232970793398,1.2443887519399163e+30
26.300000000000047,10.834053400193287,5.340493279669088,1.2390869807782338e+30
26.40000000000005,10.831746644329959,5.333798556237568,1.233827790356659e+30
26.50000000000005,10.829458575341793,5.327148312768283,1.2286106793363963e+30
26.60000000000005,10.827188957479851,5.320542068734426,1.2234351541434497e+30
26.700000000000053,10.824937558971182,5.313979350679608,1.2183007288197351e+30
26.800000000000054,10.822704151935538,5.307459692087482,1.2132069248775936e+30
26.900000000000055,10.820488512304163,5.300982633254236,1.2081532711576139e+30
27.000000000000057,10.818290419740597,5.294547721163871,1.2031393036896767e+30
27.10000000000006,10.816109657563436,5.2881545093662154,1.1981645655571374e+30
27.20000000000006,10.81394601267099,5.2818025578575885,1.1932286067640643e+30
27.30000000000006,10.81179927546779,5.2754914329640545,1.1883309841054516e+30
27.400000000000063,10.80966923979289,5.2692207072272,1.1834712610403339e+30
27.500000000000064,10.807555702849914,5.262989959292375,1.1786490075677203e+30
27.600000000000065,10.805458465138788,5.256798773799336,1.1738638001052825e+30
27.700000000000067,10.803377330389129,5.250646741275214,1.1691152213707214e+30
27.800000000000068,10.801312105495239,5.244533458029794,1.1644028602657453e+30
27.90000000000007,10.799262600452643,5.238458526052994,1.1597263117625932e+30
28.00000000000007,10.79722862829615,5.23242155291452,1.1550851767930374e+30
28.100000000000072,10.795210005039385,5.226422151665663,1.1504790621398048e+30
28.200000000000074,10.79320654961575,5.2204599407431225,1.145907580330352e+30
28.300000000000075,10.79121808382078,5.214534543874884,1.1413703495329406e+30
28.400000000000077,10.78924443225585,5.208645589988038,1.1368669934549483e+30
28.500000000000078,10.78728542227321,5.202792713118541,1.1323971412433665e+30
28.60000000000008,10.785340883922288,5.196975552322824,1.1279604273874247e+30
28.70000000000008,10.783410649897245,5.191193751591251,1.1235564916232924e+30
28.800000000000082,10.781494555485756,5.1854469597633575,1.1191849788408057e+30
28.900000000000084,10.779592438518955,5.179734830444826,1.1148455389921687e+30
29.000000000000085,10.777704139322543,5.174057021926158,1.1105378270025812e+30
29.100000000000087,10.775829500669005,5.1684131971030265,1.1062615026827472e+30
29.200000000000088,10.77396836773093,5.16280302339823,1.1020162306432147e+30
29.30000000000009,10.77212058803538,5.157226172685231,1.0978016802105069e+30
29.40000000000009,10.770286011419294,5.151682321213253,1.0936175253449977e+30
29.500000000000092,10.768464489985913,5.146171149533879,1.0894634445604911e+30
29.600000000000094,10.766655878062156,5.140692342429113,1.0853391208454629e+30
29.700000000000095,10.764860032156983,5.135245588840907,1.0812442415859265e+30
29.800000000000097,10.763076810920666,5.1298305818020795,1.0771784984898812e+30
29.900000000000098,10.761306075104967,5.124447018368597,1.0731415875133072e+30
30.0000000000001,10.759547687524213,5.11909459955322,1.0691332087876701e+30
30.1000000000001,10.757801513017219,5.113773030260455,1.0651530665489008e+30
30.200000000000102,10.756067418410042,5.108482019222768,1.0612008690678114e+30
30.300000000000104,10.754345272479576,5.103221278938082,1.0572763285819197e+30
30.400000000000105,10.752634945917912,5.097990525608472,1.0533791612286438e+30
30.500000000000107,10.750936311297497,5.092789479080066,1.0495090869798385e+30
30.600000000000108,10.749249243037045,5.087617862784123,1.0456658295776401e+30
30.70000000000011,10.747573617368172,5.082475403679235,1.0418491164715904e+30
30.80000000000011,10.745909312302764,5.077361832194667,1.0380586787570092e+30
30.900000000000112,10.74425620760104,5.072276882174766,1.0342942511145887e+30
31.000000000000114,10.742614184740297,5.06722029082445,1.0305555717511799e+30
31.100000000000115,10.740983126884329,5.062191798655754,1.0268423823417424e+30
31.200000000000117,10.739362918853484,5.057191149435371,1.0231544279724354e+30
31.300000000000118,10.737753447095363,5.052218090133197,1.0194914570848199e+30
31.40000000000012,10.736154599656137,5.04727237087186,1.0158532214211484e+30
31.50000000000012,10.734566266152466,5.042353744877211,1.0122394759707183e+30
31.600000000000122,10.732988337744008,5.037461968429724,1.0086499789172628e+30
31.700000000000124,10.731420707106492,5.032596800816824,1.0050844915873589e+30
31.800000000000125,10.729863268405376,5.027758004286115,1.001542778399827e+30
31.900000000000126,10.728315917270022,5.022945343999453,9.980246068161025e+29
32.00000000000013,10.726778550768424,5.018158587987914,9.94529747291555e+29
32.10000000000013,10.725251067382455,5.013397507107566,9.910579732277365e+29
32.20000000000013,10.723733366983618,5.008661874996076,9.87609060925538e+29
32.30000000000013,10.722225350809289,5.0039514680301025,9.841827895392303e+29
32.400000000000134,10.720726921439459,4.9992660652834875,9.807789410313774e+29
32.500000000000135,10.719237982773935,4.994605448486206,9.773973001285957e+29
32.600000000000136,10.717758440010012,4.98996940198407,9.74037654278144e+29
32.70000000000014,10.716288199620594,4.985357712699168,9.70699793605327e+29
32.80000000000014,10.71482716933275,4.9807701700910085,9.673835108716933e+29
32.90000000000014,10.713375258106707,4.976206566118386,9.640886014340103e+29
33.00000000000014,10.711932376115262,4.971666695201928,9.608148632040002e+29
33.10000000000014,10.710498434723606,4.967150354187318,9.575620966088203e+29
33.200000000000145,10.709073346469541,4.962657342309173,9.543301045522726e+29
33.300000000000146,10.707657025044103,4.95818746115558,9.511186923767247e+29
33.40000000000015,10.70624938527255,4.9537405146332425,9.4792766782573e+29
33.50000000000015,10.70485034309574,4.949316308933279,9.447568410073296e+29
33.60000000000015,10.703459815551872,4.944914652497598,9.416060243580233e+29
33.70000000000015,10.70207772075857,4.940535355985892,9.384750326073939e+29
33.80000000000015,10.700703977895333,4.936178232243185,9.353636827433743e+29
33.900000000000155,10.69933850718632,4.931843096267986,9.322717939781376e+29
34.000000000000156,10.69798122988347,4.927529765180978,9.291991877146055e+29
34.10000000000016,10.696632068249935,4.923238058194242,9.261456875135551e+29
34.20000000000016,10.695290945543862,4.9189677965810645,9.231111190613147e+29
34.30000000000016,10.693957786002454,4.914718803646217,9.200953101380365e+29
34.40000000000016,10.69263251482635,4.910490904696774,9.170980905865336e+29
34.50000000000016,10.691315058164312,4.906283927013451,9.141192922816692e+29
34.600000000000165,10.69000534309818,4.902097699822395,9.11158749100288e+29
34.700000000000166,10.68870329762814,4.8979320542675095,9.082162968916774e+29
34.80000000000017,10.687408850658244,4.893786823383211,9.052917734485481e+29
34.90000000000017,10.686121931982223,4.8896618420676745,9.023850184785246e+29
35.00000000000017,10.684842472269553,4.885556947056521,8.994958735761314e+29
35.10000000000017,10.683570403051792,4.881471976896977,8.966241821952719e+29
35.20000000000017,10.682305656709165,4.877406771922433,8.937697896221819e+29
35.300000000000175,10.681048166457398,4.873361174227464,8.909325429488539e+29
35.400000000000176,10.679797866334802,4.869335027643254,8.881122910469205e+29
35.50000000000018,10.678554691189596,4.865328177713449,8.853088845419878e+29
35.60000000000018,10.677318576667455,4.861340471670383,8.825221757884106e+29
35.70000000000018,10.676089459199295,4.857371758411747,8.797520188444983e+29
35.80000000000018,10.674867275989278,4.853421888477595,8.769982694481482e+29
35.90000000000018,10.673651965003042,4.849490714027777,8.742607849928892e+29
36.000000000000185,10.672443464956135,4.845578088819714,8.715394245043373e+29
36.100000000000186,10.671241715302672,4.841683868186571,8.68834048617048e+29
36.20000000000019,10.670046656224184,4.837807909015746,8.661445195517595e+29
36.30000000000019,10.668858228618676,4.8339500697277495,8.634707010930217e+29
36.40000000000019,10.667676374089886,4.830110210255418,8.608124585671988e+29
36.50000000000019,10.66650103493673,4.826288192023475,8.581696588208429e+29
36.60000000000019,10.665332154142929,4.822483877928394,8.555421701994277e+29
36.700000000000195,10.664169675366843,4.818697132318627,8.529298625264374e+29
36.800000000000196,10.663013542931461,4.8149278209751305,8.503326070828041e+29
36.9000000000002,10.661863701814589,4.81117581109222,8.477502765866843e+29
37.0000000000002,10.660720097639198,4.807440971258718,8.451827451735719e+29
37.1000000000002,10.659582676663947,4.803723171439417,8.426298883767379e+29
37.2000000000002,10.658451385773871,4.800022282956824,8.400915831079926e+29
37.3000000000002,10.65732617247124,4.796338178473226,8.375677076387628e+29
37.400000000000205,10.656206984866566,4.792670731973006,8.350581415814805e+29
37.500000000000206,10.655093771669772,4.7890198187452615,8.325627658712715e+29
37.60000000000021,10.653986482181521,4.785385315366701,8.300814627479466e+29
37.70000000000021,10.65288506628468,4.781767099684794,8.276141157382817e+29
37.80000000000021,10.651789474435951,4.7781650508011975,8.251606096385863e+29
37.90000000000021,10.65069965765763,4.774579049055449,8.227208304975535e+29
38.00000000000021,10.649615567529509,4.771008976008895,8.202946655993855e+29
38.100000000000215,10.648537156180934,4.767454714428901,8.178820034471906e+29
38.200000000000216,10.647464376282977,4.763916148273273,8.154827337466464e+29
38.30000000000022,10.646397181040754,4.760393162674955,8.130967473899239e+29
38.40000000000022,10.645335524185866,4.756885643926932,8.107239364398669e+29
38.50000000000022,10.644279359968973,4.753393479467386,8.083641941144241e+29
38.60000000000022,10.6432286431525,4.749916557865092,8.06017414771328e+29
38.70000000000022,10.642183329003453,4.74645476880501,8.036834938930152e+29
38.800000000000225,10.641143373286358,4.743008003074114,8.013623280717845e+29
38.900000000000226,10.640108732256328,4.7395761525474445,7.990538149951903e+29
39.00000000000023,10.639079362652234,4.7361591101743485,7.967578534316625e+29
39.10000000000023,10.638055221690001,4.732756769964969,7.944743432163539e+29
39.20000000000023,10.637036267056006,4.729369026976907,7.922031852372069e+29
39.30000000000023,10.636022456900587,4.725995777302088,7.899442814212384e+29
39.40000000000023,10.635013749831668,4.722636918053845,7.876975347210361e+29
39.500000000000234,10.634010104908477,4.719292347354192,7.854628491014661e+29
39.600000000000236,10.633011481635375,4.715961964321268,7.832401295265848e+29
39.70000000000024,10.632017839955784,4.712645669056997,7.810292819467514e+29
39.80000000000024,10.631029140246214,4.709343362634911,7.788302132859414e+29
39.90000000000024,10.630045343310385,4.70605494708817,7.766428314292518e+29
40.00000000000024,10.629066410373452,4.702780325397754,7.744670452105995e+29
40.10000000000024,10.628092303076317,4.699519401480831,7.723027644006063e+29
40.200000000000244,10.62712298347003,4.696272080179291,7.701498996946692e+29
40.300000000000246,10.626158414010295,4.693038267248461,7.680083627012102e+29
40.40000000000025,10.625198557552045,4.689817869345982,7.658780659301071e+29
40.50000000000025,10.624243377344118,4.686610794020842,7.637589227812953e+29
40.60000000000025,10.623292837024017,4.683416949702583,7.616508475335447e+29
40.70000000000025,10.622346900612742,4.680236245690649,7.595537553334038e+29
40.80000000000025,10.621405532509721,4.677068592143915,7.574675621843098e+29
40.900000000000254,10.620468697487807,4.673913900070332,7.553921849358614e+29
41.000000000000256,10.619536360688365,4.670772081316761,7.533275412732525e+29
41.10000000000026,10.618608487616427,4.667643048558925,7.512735497068626e+29
41.20000000000026,10.617685044135937,4.664526715291528,7.492301295620023e+29
41.30000000000026,10.61676599646505,4.661422995818487,7.471972009688098e+29
41.40000000000026,10.615851311171525,4.6583318052433444,7.451746848522981e+29
41.50000000000026,10.614940955168182,4.655253059459785,7.431625029225479e+29
41.600000000000264,10.614034895708423,4.6521866751423016,7.411605776650453e+29
41.700000000000266,10.613133100381836,4.649132569736992,7.391688323311612e+29
41.80000000000027,10.612235537109854,4.646090661452485,7.3718719092877e+29
41.90000000000027,10.611342174141493,4.643060869251007,7.35215578213005e+29
42.00000000000027,10.610452980049148,4.640043112839559,7.3325391967715e+29
42.10000000000027,10.609567923724455,4.637037312661224,7.313021415436607e+29
42.20000000000027,10.608686974374217,4.634043389886595,7.293601707553189e+29
42.300000000000274,10.607810101516396,4.631061266405339,7.274279349665133e+29
42.400000000000276,10.606937274976156,4.628090864817851,7.255053625346463e+29
42.50000000000028,10.606068464881982,4.625132108427055,7.235923825116644e+29
42.60000000000028,10.605203641661843,4.622184921230293,7.216889246357113e+29
42.70000000000028,10.604342776039422,4.619249227911348,7.197949193228993e+29
42.80000000000028,10.6034858390304,4.616324953832567,7.179102976591989e+29
42.90000000000028,10.602632801938794,4.61341202502709,7.160349913924442e+29
43.000000000000284,10.601783636353355,4.610510368191194,7.141689329244528e+29
43.100000000000286,10.600938314144017,4.607619910676744,7.123120553032553e+29
43.20000000000029,10.6000968074584,4.604740580483743,7.104642922154378e+29
43.30000000000029,10.599259088718362,4.601872306252984,7.0862557797859e+29
43.40000000000029,10.59842513061661,4.599015017258797,7.067958475338622e+29
43.50000000000029,10.59759490611335,4.596168643401915,7.049750364386252e+29
43.60000000000029,10.596768388433,4.593333115202416,7.031630808592336e+29
43.700000000000294,10.59594555106094,4.59050836379277,7.013599175638912e+29
43.800000000000296,10.595126367740315,4.5876943209109875,6.995654839156154e+29
43.9000000000003,10.594310812468889,4.584890918893837,6.977797178652997e+29
44.0000000000003,10.593498859495934,4.582098090670192,6.96002557944873e+29
44.1000000000003,10.592690483319178,4.579315769754422,6.942339432605541e+29
44.2000000000003,10.591885658681784,4.5765438902399165,6.924738134861982e+29
44.3000000000003,10.591084360569388,4.573782386792662,6.907221088567374e+29
44.400000000000304,10.590286564207165,4.571031194644929,6.889787701617096e+29
44.500000000000306,10.589492245056947,4.568290249589021,6.87243738738878e+29
44.60000000000031,10.588701378814381,4.565559487971125,6.85516956467937e+29
44.70000000000031,10.587913941406127,4.562838846685244,6.837983657643053e+29
44.80000000000031,10.587129908987093,4.560128263167185,6.820879095730023e+29
44.90000000000031,10.58634925793772,4.557427675388666,6.803855313626099e+29
45.00000000000031,10.58557196486129,4.554737021851462,6.786911751193148e+29
45.100000000000314,10.584798006581291,4.55205624158166,6.770047853410326e+29
45.200000000000315,10.584027360138803,4.54938527412396,6.753263070316105e+29
45.30000000000032,10.583260002789933,4.546724059536082,6.7365568569511e+29
45.40000000000032,10.582495912003274,4.544072538383214,6.719928673301645e+29
45.50000000000032,10.58173506545742,4.541430651732561,6.703377984244144e+29
45.60000000000032,10.58097744103849,4.538798341147951,6.68690425949017e+29
45.70000000000032,10.58022301683771,4.536175548684497,6.67050697353228e+29
45.800000000000324,10.579471771149016,4.53356221688337,6.654185605590575e+29
45.900000000000325,10.578723682466697,4.530958288766591,6.637939639559968e+29
46.00000000000033,10.57797872948306,4.528363707831927,6.62176856395814e+29
46.10000000000033,10.577236891086146,4.525778418047823,6.605671871874208e+29
46.20000000000033,10.57649814635746,4.52320236384843,6.589649060918057e+29
46.30000000000033,10.575762474569744,4.520635490128674,6.573699633170341e+29
46.40000000000033,10.575029855184775,4.518077742239395,6.557823095133162e+29
46.500000000000334,10.574300267851193,4.515529065982542,6.542018957681375e+29
46.600000000000335,10.573573692402366,4.512989407606453,6.526286736014548e+29
46.70000000000034,10.57285010885428,4.510458713801163,6.510625949609545e+29
46.80000000000034,10.572129497403449,4.507936931693785,6.49503612217373e+29
46.90000000000034,10.571411838424872,4.5054240088439625,6.479516781598785e+29
47.00000000000034,10.570697112470004,4.502919893239351,6.46406745991512e+29
47.10000000000034,10.569985300264756,4.500424533291184,6.448687693246893e+29
47.200000000000344,10.569276382707532,4.497937877829888,6.433377021767589e+29
47.300000000000345,10.568570340867277,4.49545987610073,6.418134989656198e+29
47.40000000000035,10.567867155981567,4.492990477759551,6.402961145053941e+29
47.50000000000035,10.567166809454713,4.490529632868533,6.387855040021562e+29
47.60000000000035,10.5664692828559,4.488077291892035,6.372816230497172e+29
47.70000000000035,10.565774557917342,4.485633405692452,6.357844276254619e+29
47.80000000000035,10.56508261653247,4.483197925526168,6.342938740862411e+29
47.900000000000354,10.564393440754136,4.480770803039514,6.3280991916431496e+29
48.000000000000355,10.56370701279285,4.478351990264805,6.313325199633487e+29
48.10000000000036,10.563023315015034,4.475941439616419,6.298616339544587e+29
48.20000000000036,10.562342329941297,4.473539103886921,6.283972189723097e+29
48.30000000000036,10.561664040244747,4.471144936243245,6.269392332112606e+29
48.40000000000036,10.560988428749305,4.468758890222897,6.2548763522155945e+29
48.50000000000036,10.560315478428056,4.466380919730237,6.240423839055863e+29
48.600000000000364,10.559645172401618,4.464010979032781,6.2260343851414336e+29
48.700000000000365,10.558977493936535,4.461649022757575,6.211707586427919e+29
