Time,Mass,Radius,Lx
23.0,10.922479985220718,5.59,1.44e+30
23.1,10.919412683638337,5.581556542477662,1.4125817530701226e+30
23.200000000000003,10.916414504352176,5.573264594710132,1.385800636098691e+30
23.300000000000004,10.91348342521889,5.565120272116092,1.3596391925956558e+30
23.400000000000006,10.91061749762466,5.557119813970862,1.3340805163776613e+30
23.500000000000007,10.907814843278217,5.549259578719637,1.30910823196864e+30
23.60000000000001,10.905073651166807,5.541536039494901,1.284706475777958e+30
23.70000000000001,10.902392174665643,5.533945779828051,1.2608598780221267e+30
23.80000000000001,10.899768728792054,5.526485489545715,1.2375535453577334e+30
23.900000000000013,10.897201687596096,5.519151960841898,1.214773044194771e+30
24.000000000000014,10.89468948167989,5.511942084517463,1.1925043846610063e+30
24.100000000000016,10.892230595838463,5.50485284637888,1.1707340051894066e+30
24.200000000000017,10.889823566815323,5.49788132378875,1.1494487577019633e+30
24.30000000000002,10.887466981166405,5.491024682360793,1.1286358933644884e+30
24.40000000000002,10.88515947322642,5.484280172792564,1.1082830488881485e+30
24.50000000000002,10.882899723172029,5.477645127829376,1.0883782333546191e+30
24.600000000000023,10.880686455176587,5.471116959353354,1.0689098155428151e+30
24.700000000000024,10.878518435651499,5.464693155591722,1.0498665117361571e+30
24.800000000000026,10.876394471569588,5.458371278438914,1.0312373739903074e+30
24.900000000000027,10.874313408866092,5.4521489608871665,1.0130117788422134e+30
25.00000000000003,10.872274130913187,5.446023904560702,9.95179416442176e+29
25.10000000000003,10.87027555706421,5.439993877348769,9.777302800914791e+29
25.20000000000003,10.868316641263904,5.434056711133015,9.606546561689103e+29
25.300000000000033,10.866396370721318,5.428210299605013,9.439431144302457e+29
25.400000000000034,10.864513764642098,5.422452596169842,9.275864986654858e+29
25.500000000000036,10.862667873017159,5.416781611931924,9.115759176993086e+29
25.600000000000037,10.86085777546487,5.411195413759396,8.959027367208453e+29
25.70000000000004,10.859082580124053,5.405692122423666,8.805585689295052e+29
25.80000000000004,10.85734142259525,5.400269910810729,8.655352674841538e+29
25.90000000000004,10.855633464927857,5.394927002201188,8.508249177435089e+29
26.000000000000043,10.853957894650856,5.389661668615947,8.364198297861478e+29
26.100000000000044,10.852313923844994,5.384472229224764,8.223125311990258e+29
26.200000000000045,10.850700788254402,5.379357048814942,8.084957601238814e+29
26.300000000000047,10.849117746435722,5.374314536317581,7.949624585513733e+29
26.40000000000005,10.847564078942947,5.369343143388965,7.817057658532175e+29
26.50000000000005,10.846039087546242,5.36444136304469,7.687190125430221e+29
26.60000000000005,10.844542094483158,5.359607728344379,7.559957142569058e+29
26.700000000000053,10.843072441740672,5.354840811124802,7.435295659453717e+29
26.800000000000054,10.841629490366627,5.350139220779417,7.313144362682652e+29
26.900000000000055,10.840212619809181,5.345501603082383,7.193443621849894e+29
27.000000000000057,10.838821227282978,5.340926639055214,7.076135437324867e+29
27.10000000000006,10.837454727160786,5.336413043874321,6.961163389838004e+29
27.20000000000006,10.836112550389453,5.331959565817764,6.848472591803389e+29
27.30000000000006,10.834794143929052,5.327564985249613,6.738009640312432e+29
27.400000000000063,10.83349897021418,5.323228113640411,6.629722571735397e+29
27.500000000000064,10.832226506636394,5.318947792622268,6.52356081787015e+29
27.600000000000065,10.830976245046847,5.3147228930771835,6.419475163580026e+29
27.700000000000067,10.829747691278223,5.31055231425732,6.317417705865079e+29
27.800000000000068,10.828540364685107,5.306434982935878,6.217341814313283e+29
27.90000000000007,10.82735379770198,5.30236985258745,6.119202092880374e+29
28.00000000000007,10.826187535418072,5.298355902596628,6.022954342949171e+29
28.100000000000072,10.825041135168336,5.294392137493775,5.92855552762116e+29
28.200000000000074,10.823914166139838,5.290477586216934,5.8359637371950265e+29
28.300000000000075,10.822806208992903,5.286611301398797,5.745138155788666e+29
28.400000000000077,10.821716855496385,5.282792358677828,5.656039029062926e+29
28.500000000000078,10.82064570817646,5.27901985603258,5.5686276330069825e+29
28.60000000000008,10.819592379978369,5.275292913138321,5.48286624374689e+29
28.70000000000008,10.818556493940553,5.271610670745121,5.398718108340313e+29
28.800000000000082,10.817537682880687,5.267972290076598,5.31614741652195e+29
28.900000000000084,10.81653558909308,5.264376952248519,5.235119273365533e+29
29.000000000000085,10.815549864057012,5.260823857706538,5.155599672829633e+29
29.100000000000087,10.814580168155517,5.257312225682352,5.077555472155774e+29
29.200000000000088,10.813626170404218,5.253841293667555,5.000954367088586e+29
29.30000000000009,10.812687548189771,5.250410316904594,4.925764867888905e+29
29.40000000000009,10.811763987017555,5.247018567894125,4.851956276111862e+29
29.500000000000092,10.810855180268218,5.243665335918241,4.779498662123042e+29
29.600000000000094,10.809960828962742,5.240349926578947,4.708362843326878e+29
29.700000000000095,10.809080641535658,5.237071661351331,4.638520363082405e+29
29.800000000000097,10.808214333616109,5.233829877150907,4.5699434702824336e+29
29.900000000000098,10.80736162781645,5.230623925914619,4.50260509957317e+29
30.0000000000001,10.80652225352808,5.227453174195032,4.436478852192091e+29
30.1000000000001,10.805695946724223,5.224317002767187,4.371538977402825e+29
30.200000000000102,10.8048824497694,5.221214806247743,4.30776035450648e+29
30.300000000000104,10.804081511235312,5.218145992725908,4.245118475409742e+29
30.400000000000105,10.803292885722907,5.215109983405769,4.183589427730693e+29
30.500000000000107,10.802516333690388,5.2121062122596395,4.123149878424109e+29
30.600000000000108,10.80175162128692,5.209134125691996,4.063777057908598e+29
30.70000000000011,10.800998520191849,5.206193182213676,4.005448744678633e+29
30.80000000000011,10.800256807459196,5.203282852125967,3.948143250385149e+29
30.900000000000112,10.799526265367247,5.200402617214222,3.891839405368979e+29
31.000000000000114,10.798806681273037,5.197551970450725,3.8365165446319616e+29
31.100000000000115,10.798097847471556,5.194730415706442,3.7821544942311354e+29
31.200000000000117,10.797399561059489,5.1919374674713765,3.728733558081952e+29
31.300000000000118,10.796711623803333,5.189172650583242,3.6762345051569396e+29
31.40000000000012,10.796033842011735,5.186435499964166,3.624638557066766e+29
31.50000000000012,10.795366026411875,5.183725560365135,3.573927376011097e+29
31.600000000000122,10.79470799202978,5.181042386117971,3.5240830530871135e+29
31.700000000000124,10.794059558074387,5.178385540894521,3.475088096943985e+29
31.800000000000125,10.793420547825264,5.175754597472889,3.42692542277201e+29
31.900000000000126,10.792790788523812,5.1731491375104195,3.379578341615529e+29
32.00000000000013,10.79217011126787,5.170568751323254,3.333030549999133e+29
32.10000000000013,10.791558350909566,5.168013037672221,3.2872661198570286e+29
32.20000000000013,10.790955345956311,5.165481603554838,3.2422694887557824e+29
32.30000000000013,10.790360938474837,5.162974064003283,3.1980254504010435e+29
32.400000000000134,10.789774973998155,5.160490041888075,3.1545191454191315e+29
32.500000000000135,10.789197301435344,5.158029167727328,3.111736052404718e+29
32.600000000000136,10.788627772984063,5.1555910795013675,3.06966197922614e+29
32.70000000000014,10.7880662440457,5.1531754224725645,3.0282830545801598e+29
32.80000000000014,10.787512573143063,5.150781849010194,2.9875857197882884e+29
32.90000000000014,10.786966621840529,5.148410018420188,2.9475567208270458e+29
33.00000000000014,10.786428254666559,5.146059596779596,2.90818310058481e+29
33.10000000000014,10.785897339038515,5.143730256775632,2.869452191338141e+29
33.200000000000145,10.785373745189679,5.141421677549142,2.8313516074407352e+29
33.300000000000146,10.784857346098425,5.13913354454238,2.7938692382183634e+29
33.40000000000015,10.784348017419452,5.136865549350927,2.756993241063412e+29
33.50000000000015,10.783845637417015,5.134617389579651,2.7207120347228306e+29
33.60000000000015,10.783350086900093,5.132388768702567,2.68501429277352e+29
33.70000000000015,10.782861249159428,5.1301793959264845,2.6498889372793843e+29
33.80000000000015,10.78237900990636,5.127988986058314,2.6153251326244682e+29
33.900000000000155,10.781903257213433,5.125817259375953,2.581312279516798e+29
34.000000000000156,10.781433881456662,5.123663941502605,2.5478400091576984e+29
34.10000000000016,10.780970775259467,5.121528763284431,2.5148981775715695e+29
34.20000000000016,10.78051383343817,5.119411460671474,2.4824768600912352e+29
34.30000000000016,10.780062952949026,5.117311774601697,2.4505663459941693e+29
34.40000000000016,10.779618032836753,5.115229450888105,2.419157133285039e+29
34.50000000000016,10.77917897418448,5.11316424010879,2.3882399236201696e+29
34.600000000000165,10.778745680065096,5.111115897499882,2.3578056173696678e+29
34.700000000000166,10.778318055493939,5.109084182851269,2.3278453088130893e+29
34.80000000000017,10.777896007382788,5.107068860405007,2.2983502814646652e+29
34.90000000000017,10.77747944449513,5.1050696987563935,2.2693120035242384e+29
35.00000000000017,10.777068277402636,5.103086470757555,2.240722123450176e+29
35.10000000000017,10.776662418442825,5.1011189534235175,2.212572465650653e+29
35.20000000000017,10.776261781677883,5.0991669278406775,2.184855026289819e+29
35.300000000000175,10.77586628285459,5.097230179077622,2.1575619692054638e+29
35.400000000000176,10.775475839365322,5.095308496098172,2.1306856219349216e+29
35.50000000000018,10.775090370210108,5.093401671676668,2.104218471846036e+29
35.60000000000018,10.77470979595969,5.091509502315363,2.078153162370136e+29
35.70000000000018,10.774334038719573,5.089631788163902,2.0524824893340436e+29
35.80000000000018,10.773963022095021,5.08776833294081,2.027199397388255e+29
35.90000000000018,10.773596671156989,5.085918943856948,2.0022969765285e+29
36.000000000000185,10.773234912408936,5.08408343154086,1.9777684587079996e+29
36.100000000000186,10.77287767375452,5.082261609965979,1.9536072145378023e+29
36.20000000000019,10.772524884466126,5.08045329637962,1.9298067500726864e+29
36.30000000000019,10.772176475154223,5.078658311233728,1.906360703680164e+29
36.40000000000019,10.771832377737507,5.076876478117319,1.8832628429902328e+29
36.50000000000019,10.771492525413814,5.07510762369057,1.8605070619235703e+29
36.60000000000019,10.771156852631792,5.073351577620528,1.8380873777959452e+29
36.700000000000195,10.770825295063286,5.071608172518354,1.8159979284966936e+29
36.800000000000196,10.770497789576432,5.0698772438781035,1.7942329697391666e+29
36.9000000000002,10.770174274209442,5.068158630016985,1.7727868723811276e+29
37.0000000000002,10.769854688145044,5.066452172017038,1.7516541198131332e+29
37.1000000000002,10.769538971685572,5.064757713668216,1.7308293054129982e+29
37.2000000000002,10.769227066228686,5.063075101412835,1.7103071300644985e+29
37.3000000000002,10.768918914243692,5.061404184291329,1.6900823997385207e+29
37.400000000000205,10.768614459248464,5.059744813889305,1.6701500231349345e+29
37.500000000000206,10.768313645786932,5.058096844285828,1.6505050093834927e+29
37.60000000000021,10.76801641940713,5.056460132002954,1.6311424658021404e+29
37.70000000000021,10.767722726639796,5.054834535956432,1.612057595711147e+29
37.80000000000021,10.767432514977486,5.053219917407549,1.5932456963015284e+29
37.90000000000021,10.767145732854207,5.051616139916122,1.5747021565562694e+29
38.00000000000021,10.766862329625548,5.050023069294552,1.556422455222909e+29
38.100000000000215,10.766582255549297,5.048440573562978,1.5384021588360853e+29
38.200000000000216,10.766305461766525,5.0468685229054415,1.52063691978868e+29
38.30000000000022,10.766031900283132,5.045306789627071,1.5031224744502482e+29
38.40000000000022,10.765761523951833,5.043755248112238,1.485854641331455e+29
38.50000000000022,10.765494286454583,5.0422137747836935,1.4688293192932742e+29
38.60000000000022,10.765230142285422,5.040682248062607,1.4520424857997484e+29
38.70000000000022,10.764969046733723,5.039160548329539,1.43549019521314e+29
38.800000000000225,10.764710955867853,5.0376485578862855,1.4191685771303396e+29
38.900000000000226,10.764455826519203,5.03614616091858,1.4030738347594279e+29
39.00000000000023,10.764203616266613,5.034653243459655,1.3872022433353251e+29
39.10000000000023,10.76395428342115,5.033169693354592,1.3715501485734876e+29
39.20000000000023,10.763707787011258,5.031695400225507,1.356113965160644e+29
39.30000000000023,10.76346408676824,5.03023025543747,1.3408901752815921e+29
39.40000000000023,10.763223143112093,5.028774152065225,1.3258753271811067e+29
39.500000000000234,10.76298491713766,5.027326984860612,1.3110660337600346e+29
39.600000000000236,10.762749370601114,5.025888650220737,1.2964589712046793e+29
39.70000000000024,10.762516465906748,5.024459046156823,1.2820508776486055e+29
39.80000000000024,10.762286166094068,5.0230380722637555,1.2678385518660196e+29
39.90000000000024,10.76205843482519,5.021625629690304,1.2538188519958971e+29
40.00000000000024,10.761833236372517,5.020221621109964,1.239988694296068e+29
40.10000000000024,10.7616105356067,5.018825950692467,1.2263450519264778e+29
41.10000000000024,10.759513576950878,5.00530777789823,1.0995394533572447e+29
42.10000000000024,10.7576317659198,4.992528117045696,9.884359449043401e+28
43.10000000000024,10.755935949145485,4.980406820214828,8.990336161802474e+28
44.10000000000024,10.754329471701803,4.968712524527653,8.895468035493167e+28
45.10000000000024,10.752751269937312,4.957296099684084,8.803694905177943e+28
46.10000000000024,10.751200243405806,4.946144928398091,8.714850464867227e+28
47.10000000000024,10.74967535721856,4.935247225882492,8.628780705687169e+28
48.10000000000024,10.748175636839969,4.924591968544707,8.545342768469506e+28
49.10000000000024,10.746700163395245,4.914168830133437,8.464403924712825e+28
50.10000000000024,10.745248069430442,4.903968124422981,8.38584066926467e+28
51.10000000000024,10.743818535073107,4.893980753649744,8.309537910518698e+28
52.10000000000024,10.742410784548644,4.884198162023244,8.235388245966796e+28
53.10000000000024,10.741024083013292,4.874612293725118,8.163291312663871e+28
54.10000000000024,10.739657733669535,4.865215554887143,8.093153203610875e+28
55.10000000000024,10.738311075134055,4.856000779105259,8.024885942285928e+28
56.10000000000024,10.736983479031943,4.846961196102994,7.958407008592057e+28
57.10000000000024,10.735674347794072,4.8380904032060625,7.893638910374173e+28
58.10000000000024,10.734383112637213,4.829382339331448,7.830508795412443e+28
59.10000000000024,10.73310923170889,4.820831261230161,7.76894809944539e+28
60.10000000000024,10.731852188380978,4.81243172175382,7.708892226330667e+28
61.10000000000024,10.730611489677866,4.804178549942069,7.650280256928988e+28
62.10000000000024,10.729386664826537,4.7960668327511575,7.593054683708837e+28
63.10000000000024,10.728177263917331,4.788091898264325,7.537161168426219e+28
64.10000000000025,10.72698285666531,4.7802493002423905,7.48254832054304e+28
65.10000000000025,10.725803031263247,4.772534803888471,7.429167494316704e+28
66.10000000000025,10.72463739331813,4.764944372714281,7.376972602727814e+28
67.10000000000025,10.72348556486398,4.7574741564075635,7.3259199466176945e+28
68.10000000000025,10.722347183444418,4.750120479610573,7.275968057586482e+28
69.10000000000025,10.721221901259126,4.742879831528944,7.227077553359736e+28
70.10000000000025,10.72010938436889,4.735748856298407,7.179211004469606e+28
71.10000000000025,10.719009311954432,4.728724344044144,7.132332811218161e+28
72.10000000000025,10.71792137562469,4.721803222573947,7.086409089997729e+28
73.10000000000025,10.716845278770604,4.714982549652185,7.041407568137967e+28
74.10000000000025,10.71578073596085,4.708259505806565,6.997297486533218e+28
75.10000000000025,10.71472747237625,4.70163138762432,6.95404950937823e+28
76.10000000000025,10.713685223279922,4.695095601498475,6.911635640406391e+28
77.10000000000025,10.712653733520474,4.688649657788476,6.870029145083519e+28
78.10000000000025,10.711632757065757,4.682291165362741,6.829204478262656e+28
79.10000000000025,10.710622056564969,4.676017826493611,6.789137216852183e+28
80.10000000000025,10.709621402937008,4.669827432077778,6.74980399709135e+28
81.10000000000025,10.708630574983248,4.663717857157686,6.711182456064885e+28
82.10000000000025,10.70764935902294,4.657687056721455,6.673251177121861e+28
83.10000000000025,10.70667754854972,4.651733061760872,6.635989638894195e+28
84.10000000000025,10.705714943907731,4.645853975568656,6.599378167637285e+28
85.10000000000025,10.704761351986015,4.640047970257858,6.563397892639679e+28
86.10000000000025,10.703816585929971,4.634313283487583,6.5280307044707005e+28
87.10000000000025,10.702880464868711,4.6286482153805855,6.493259215854783e+28
88.10000000000025,10.701952813657282,4.6230511256194164,6.459066724979253e+28
89.10000000000025,10.701033462632784,4.617520430708897,6.425437181058517e+28
90.10000000000025,10.700122247383474,4.612054601393604,6.39235515199231e+28
91.10000000000025,10.69921900853005,4.606652160220006,6.359805793969014e+28
92.10000000000025,10.698323591518335,4.601311679233654,6.327774822877169e+28
93.10000000000025,10.697435846422641,4.596031777802538,6.296248487399274e+28
94.10000000000025,10.696555627759173,4.590811120558437,6.265213543672032e+28
95.10000000000025,10.695682794308848,4.585648415448705,6.234657231406253e+28
96.10000000000025,10.69481720894896,4.580542411891427,6.204567251368019e+28
97.10000000000025,10.693958738493171,4.575491899027496,6.174931744130218e+28
98.10000000000025,10.69310725353932,4.57049570406354,6.1457392700105495e+28
99.10000000000025,10.692262628324613,4.565552690700118,6.116978790118416e+28
100.10000000000025,10.69142474058774,4.560661757639978,6.0886396484389e+28
101.10000000000025,10.69059347143755,4.555821837171561,6.060711554887365e+28
102.10000000000025,10.68976870522789,4.5510318938232155,6.033184569273091e+28
103.10000000000025,10.688950329438264,4.546290923083971,6.006049086114787e+28
104.10000000000025,10.688138234559997,4.5415979501869375,5.97929582025498e+28
105.10000000000025,10.687332313987593,4.536952028951729,5.952915793224027e+28
106.10000000000025,10.686532463915007,4.532352240682492,5.926900320307959e+28
107.10000000000025,10.685738583236557,4.527797693118364,5.9012409982776045e+28
108.10000000000025,10.68495057345223,4.523287519433415,5.875929693739334e+28
109.10000000000025,10.684168338577166,4.518820877283318,5.850958532070522e+28
110.10000000000025,10.683391785055063,4.514396947896126,5.826319886905336e+28
111.10000000000025,10.682620821675336,4.510014935204751,5.802006370138735e+28
112.10000000000025,10.681855359493813,4.505674065018889,5.778010822418744e+28
113.10000000000025,10.681095311756792,4.501373584234229,5.754326304099045e+28
114.10000000000025,10.680340593828292,4.497112760076989,5.7309460866257405e+28
115.10000000000025,10.679591123120332,4.492890879381868,5.707863644333845e+28
116.10000000000025,10.678846819026091,4.488707247901711,5.685072646630671e+28
117.10000000000025,10.678107602855805,4.48456118964717,5.662566950544687e+28
118.10000000000025,10.67737339777526,4.4804520462548725,5.640340593619803e+28
119.10000000000025,10.676644128746766,4.476379176382586,5.618387787136306e+28
120.10000000000025,10.67591972247249,4.472341955130063,5.5967029096408265e+28
121.10000000000025,10.675200107340022,4.468339773484207,5.575280500768809e+28
122.10000000000025,10.674485213370085,4.464372037787406,5.554115255343953e+28
123.10000000000025,10.67377497216628,4.460438169227851,5.533202017740092e+28
124.10000000000025,10.67306931686677,4.456537603350771,5.51253577649176e+28
125.10000000000025,10.672368182097813,4.452669789589555,5.492111659140619e+28
126.10000000000025,10.671671503929067,4.448834190815807,5.471924927305611e+28
