Time,Mass,Radius,Lx
23.0,14.63349375081365,8.74,0.0
24.000200964630224,14.629173845242915,8.70530179322001,0.0
25.00040192926045,14.625580379829936,8.672456415466419,0.0
26.000602893890672,14.622568545066702,8.641264925624766,0.0
27.000803858520896,14.62002658738582,8.611560447477945,0.0
28.00100482315112,14.617867373002152,8.583201479547236,0.0
29.001205787781345,14.616022316948039,8.556066864729726,0.0
30.00140675241157,14.614436958478345,8.530051953725195,0.0
31.001607717041793,14.613067698374984,8.505065639963352,0.0
32.00180868167202,14.611879366756787,8.48102803968655,0.0
33.00200964630224,14.610843391580179,8.45786865591326,0.0
34.002210610932465,14.609936406416928,8.435524909798952,0.0
35.00241157556269,14.609139182785109,8.413940954179004,0.0
36.002612540192914,14.608435804586003,8.393066706195889,0.0
37.00281350482314,14.607813024778189,8.372857051755329,0.0
38.00301446945336,14.607259760390523,8.35327118603819,0.0
39.003215434083586,14.606766693390387,8.334272062710983,0.0
40.00341639871381,14.606325953162187,8.315825930711956,0.0
41.003617363344034,14.605930862352592,8.297901942154793,0.0
42.00381832797426,14.605575732249024,8.280471818416013,0.0
43.00401929260448,14.605255679731284,8.263509555885644,0.0
44.00422025723471,14.60495406472809,8.246985283397606,0.0
45.00442122186493,14.604657167827073,8.230872119396311,0.0
46.004622186495155,14.604364811627894,8.215151028696617,0.0
47.00482315112538,14.604076829100997,8.199804247630954,0.0
48.0050241157556,14.603793062774479,8.184815174149819,0.0
49.00522508038583,14.603513364000268,8.170168269489924,0.0
50.00542604501605,14.603237592290396,8.15584896998346,0.0
51.005627009646275,14.60296561471542,8.141843607782613,0.0
52.0058279742765,14.602697305358056,8.128139339442521,0.0
53.006028938906724,14.602432544816034,8.114724081448964,0.0
54.00622990353695,14.602171219748861,8.101586451898282,0.0
55.00643086816717,14.60191322246389,8.088715717640424,0.0
56.006631832797396,14.601658450537652,8.0761017462842,0.0
57.00683279742762,14.601406806468843,8.063734962539368,0.0
58.007033762057844,14.601158197359844,8.051606308435096,0.0
59.00723472668807,14.600912534623955,8.039707207010288,0.0
60.00743569131829,14.600669733715877,8.02802952911952,0.0
61.00763665594852,14.600429713883246,8.016565563040198,0.0
62.00783762057874,14.600192397937244,8.005307986602885,0.0
63.008038585208965,14.599957712040554,7.9942498415982755,0.0
64.00823954983919,14.599725585511088,7.983384510241988,0.0
65.00844051446941,14.599495950640076,7.972705693502347,0.0
66.00864147909964,14.599268742523288,7.962207391117525,0.0
67.00884244372986,14.599043898904226,7.951883883146969,0.0
68.00904340836009,14.598821360028296,7.941729712918269,0.0
69.00924437299031,14.59860106850703,7.9317396712451735,0.0
70.00944533762053,14.59838296919153,7.921908781805023,0.0
71.00964630225076,14.598167009054388,7.9122322875752165,0.0
72.00984726688098,14.597953137079404,7.902705638238299,0.0
73.0100482315112,14.597741304158488,7.893324478474039,0.0
74.01024919614143,14.597531462995175,7.884084637064895,0.0
75.01045016077165,14.59732356801426,7.87498211674813,0.0
76.01065112540188,14.597117575277085,7.866013084754254,0.0
77.0108520900321,14.596913442402041,7.857173863976978,0.0
78.01105305466233,14.596711128489924,7.848460924724948,0.0
79.01125401929255,14.596510594053768,7.839870877010009,0.0
80.01145498392277,14.59631180095286,7.83140046333077,0.0
81.011655948553,14.596114712330598,7.8230465519139205,0.0
82.01185691318322,14.595919292555967,7.814806130379006,0.0
83.01205787781345,14.595725507168359,7.806676299795326,0.0
84.01225884244367,14.5955333228255,7.79865426910224,0.0
85.0124598070739,14.595342707254298,7.7907373498666885,0.0
86.01266077170412,14.595153629204399,7.782922951353802,0.0
87.01286173633434,14.594966058404268,7.775208575888476,0.0
88.01306270096457,14.594779965519653,7.767591814487703,0.0
89.01326366559479,14.59459532211425,7.760070342744848,0.0
90.01346463022502,14.594412100612447,7.752641916948793,0.0
91.01366559485524,14.594230274264007,7.745304370422041,0.0
92.01386655948546,14.594049817110578,7.738055610063178,0.0
93.01406752411569,14.593870703953906,7.730893613080241,0.0
94.01426848874591,14.593692910325645,7.72381642390244,0.0
95.01446945337614,14.593516412458687,7.7168221512588175,0.0
96.01467041800636,14.5933411872599,7.709908965413087,0.0
97.01487138263658,14.593167212284198,7.7030750955447935,0.0
98.01507234726681,14.59299446570987,7.696318827267655,0.0
99.01527331189703,14.592822926315081,7.689638500276555,0.0
100.01547427652726,14.592652573455503,7.683032506115293,0.0
101.01567524115748,14.592483387042972,7.676499286057764,0.0
102.0158762057877,14.59231534752516,7.6700373290957415,0.0
103.01607717041793,14.592148435866168,7.663645170026907,0.0
104.01627813504815,14.591982633528009,7.657321387637232,0.0
105.01647909967838,14.591817922452922,7.65106460297215,0.0
106.0166800643086,14.591654285046479,7.644873477691451,0.0
107.01688102893883,14.591491704161442,7.63874671250303,0.0
108.01708199356905,14.591330163082322,7.63268304567106,0.0
109.01728295819927,14.591169645510616,7.626681251594363,0.0
110.0174839228295,14.591010135550677,7.620740139451099,0.0
111.01768488745972,14.59085161769618,7.614858551906076,0.0
112.01788585208995,14.590694076817169,7.6090353638772825,0.0
113.01808681672017,14.590537498147649,7.603269481358394,0.0
114.0182877813504,14.59038186727368,7.597559840294267,0.0
115.01848874598062,14.590227170121974,7.591905405506605,0.0
116.01868971061084,14.590073392948954,7.586305169667087,0.0
117.01889067524107,14.589920522330248,7.580758152315553,0.0
118.01909163987129,14.589768545150616,7.575263398920832,0.0
119.01929260450152,14.589617448594272,7.569819979982057,0.0
120.01949356913174,14.589467220135585,7.564426990168386,0.0
121.01969453376196,14.589317847530152,7.559083547495172,0.0
122.01989549839219,14.589169318806203,7.55378879253478,0.0
123.02009646302241,14.589021622256356,7.548541887660287,0.0
124.02029742765264,14.588874746429669,7.543342016320466,0.0
125.02049839228286,14.588728680124005,7.538188382344494,0.0
126.02069935691308,14.588583412378672,7.533080209274987,0.0
127.02090032154331,14.588438932467351,7.5280167397279225,0.0
128.02110128617355,14.588295229891278,7.522997234778231,0.0
129.02130225080379,14.588152294372668,7.518020973369783,0.0
130.02150321543402,14.588010115848395,7.513087251748654,0.0
131.02170418006426,14.58786868446389,7.508195382918585,0.0
132.0219051446945,14.587727990567258,7.503344696117551,0.0
133.02210610932474,14.587588024703605,7.4985345363145495,0.0
134.02230707395498,14.587448777609566,7.4937642637256,0.0
135.02250803858522,14.58731024020803,7.489033253348145,0.0
136.02270900321545,14.587172403603033,7.484340894513016,0.0
137.0229099678457,14.587035259074844,7.479686590453097,0.0
138.02311093247593,14.586898798075211,7.475069757888091,0.0
139.02331189710617,14.586763012222772,7.470489826624542,0.0
140.0235128617364,14.586627893298614,7.465946239170519,0.0
141.02371382636665,14.58649343324199,7.461438450364307,0.0
142.02391479099688,14.586359624146178,7.456965927016498,0.0
143.02411575562712,14.586226458254465,7.4525281475649034,0.0
144.02431672025736,14.586093927956277,7.448124601741764,0.0
145.0245176848876,14.58596202578343,7.443754790252697,0.0
146.02471864951784,14.5858307444065,7.439418224466936,0.0
147.02491961414808,14.585700076631314,7.435114426118361,0.0
148.0251205787783,14.585570015395543,7.430842927016865,0.0
149.02532154340855,14.585440553765423,7.426603268769686,0.0
150.0255225080388,14.58531168493256,7.422395002512209,0.0
151.02572347266903,14.585183402210838,7.418217688647944,0.0
152.02592443729927,14.585055699033436,7.414070896597245,0.0
153.0261254019295,14.584928568949925,7.409954204554461,0.0
154.02632636655974,14.584802005623454,7.405867199253159,0.0
155.02652733118998,14.58467600282803,7.401809475739096,0.0
156.02672829582022,14.58455055444587,7.3977806371506745,0.0
157.02692926045046,14.584425654464848,7.393780294506541,0.0
158.0271302250807,14.584301296975994,7.389808066500075,0.0
159.02733118971094,14.584177476171098,7.385863579300516,0.0
160.02753215434117,14.584054186340353,7.38194646636043,0.0
161.0277331189714,14.583931421870098,7.378056368229334,0.0
162.02793408360165,14.583809177240598,7.374192932373191,0.0
163.0281350482319,14.58368744702391,7.370355812999588,0.0
164.02833601286213,14.583566225881803,7.36654467088837,0.0
165.02853697749237,14.583445508563731,7.362759173227547,0.0
166.0287379421226,14.583325289904874,7.358998993454241,0.0
167.02893890675284,14.583205564824228,7.355263811100533,0.0
168.02913987138308,14.583086328322752,7.3515533116439915,0.0
169.02934083601332,14.582967575481565,7.347867186362761,0.0
170.02954180064356,14.582849301460193,7.34420513219497,0.0
171.0297427652738,14.582731501494868,7.340566851602409,0.0
172.02994372990403,14.582614170896864,7.336952052438214,0.0
173.03014469453427,14.582497305050895,7.333360447818503,0.0
174.0303456591645,14.582380899413534,7.329791755997769,0.0
175.03054662379475,14.5822649495117,7.326245700247947,0.0
176.030747588425,14.582149450941163,7.322722008740966,0.0
177.03094855305523,14.582034399365103,7.319220414434726,0.0
178.03114951768546,14.581919790512703,7.315740654962344,0.0
179.0313504823157,14.58180562017778,7.312282472524577,0.0
180.03155144694594,14.581691884217447,7.308845613785296,0.0
181.03175241157618,14.581578578550817,7.305429829769919,0.0
182.03195337620642,14.581465699157736,7.302034875766717,0.0
183.03215434083666,14.581353242077553,7.29866051123086,0.0
184.0323553054669,14.581241203407913,7.295306499691151,0.0
185.03255627009713,14.581129579303592,7.291972608659327,0.0
186.03275723472737,14.581018365975353,7.288658609541875,0.0
187.0329581993576,14.580907559688836,7.285364277554249,0.0
188.03315916398785,14.580797156763468,7.282089391637422,0.0
189.03336012861809,14.580687153571418,7.278833734376718,0.0
190.03356109324832,14.580577546536553,7.275597091922805,0.0
191.03376205787856,14.580468332133439,7.272379253914833,0.0
192.0339630225088,14.58035950688636,7.269180013405595,0.0
193.03416398713904,14.580251067368362,7.265999166788701,0.0
194.03436495176928,14.580143010200317,7.262836513727645,0.0
195.03456591639952,14.580035332050013,7.25969185708677,0.0
196.03476688102975,14.579928029631269,7.256565002863994,0.0
197.03496784566,14.579821099703059,7.253455760125329,0.0
198.03516881029023,14.579714539068673,7.25036394094106,0.0
199.03536977492047,14.579608344574886,7.247289360323576,0.0
200.0355707395507,14.579502513111155,7.2442318361668026,0.0
201.03577170418095,14.579397041608823,7.241191189187168,0.0
202.03597266881118,14.579291927040355,7.238167242866053,0.0
203.03617363344142,14.579187166418587,7.235159823393728,0.0
204.03637459807166,14.579082756795986,7.232168759614662,0.0
205.0365755627019,14.578978695263935,7.2291938829742115,0.0
206.03677652733214,14.578874978952031,7.2262350274666325,0.0
207.03697749196238,14.578771605027404,7.223292029584391,0.0
208.0371784565926,14.578668570694038,7.220364728268693,0.0
209.03737942122285,14.578565873192128,7.217452964861257,0.0
210.0375803858531,14.578463509797427,7.214556583057242,0.0
211.03778135048333,14.57836147782063,7.211675428859319,0.0
212.03798231511357,14.578259774606762,7.208809350532869,0.0
213.0381832797438,14.578158397534574,7.205958198562234,0.0
214.03838424437404,14.578057344015962,7.203121825608035,0.0
215.03858520900428,14.577956611495392,7.200300086465486,0.0
216.03878617363452,14.577856197449343,7.197492838023722,0.0
217.03898713826476,14.577756099385761,7.194699939226059,0.0
218.039188102895,14.57765631484352,7.191921251031207,0.0
219.03938906752524,14.577556841391894,7.189156636375376,0.0
220.03959003215547,14.577457676630058,7.186405960135284,0.0
221.0397909967857,14.577358818186568,7.183669089091987,0.0
222.03999196141595,14.577260263718882,7.180945891895584,0.0
223.0401929260462,14.577162010912877,7.178236239030706,0.0
224.04039389067643,14.577064057482376,7.175540002782796,0.0
225.04059485530667,14.576966401168688,7.17285705720516,0.0
226.0407958199369,14.576869039740156,7.170187278086777,0.0
227.04099678456714,14.576771970991716,7.167530542920801,0.0
228.04119774919738,14.576675192744466,7.164886730873812,0.0
229.04139871382762,14.576578702845236,7.162255722755731,0.0
230.04159967845786,14.576482499166179,7.159637400990386,0.0
231.0418006430881,14.576386579604364,7.157031649586781,0.0
232.04200160771833,14.576290942081373,7.154438354110949,0.0
233.04220257234857,14.576195584542914,7.151857401658459,0.0
234.0424035369788,14.576100504958438,7.1492886808274925,0.0
235.04260450160905,14.576005701320765,7.146732081692539,0.0
236.0428054662393,14.575911171645714,7.144187495778633,0.0
237.04300643086953,14.575816913971746,7.141654816036173,0.0
238.04320739549976,14.575722926359608,7.139133936816259,0.0
239.04340836013,14.575629206891993,7.136624753846579,0.0
240.04360932476024,14.575535753673188,7.134127164207783,0.0
241.04381028939048,14.57544256482876,7.131641066310392,0.0
242.04401125402072,14.575349638505214,7.129166359872174,0.0
243.04421221865096,14.57525697286968,7.126702945895998,0.0
244.0444131832812,14.5751645661096,7.124250726648155,0.0
245.04461414791143,14.575072416432418,7.121809605637132,0.0
246.04481511254167,14.574980522065282,7.119379487592841,0.0
247.0450160771719,14.574888881254743,7.116960278446243,0.0
248.04521704180215,14.57479749226647,7.114551885309432,0.0
249.04541800643239,14.57470635338496,7.112154216456105,0.0
250.04561897106262,14.574615462913261,7.1097671813024395,0.0
251.04581993569286,14.574524819172703,7.107390690388362,0.0
252.0460209003231,14.574434420502621,7.105024655359188,0.0
253.04622186495334,14.574344265260095,7.102668988947643,0.0
254.04642282958358,14.57425435181969,7.100323604956246,0.0
255.04662379421382,14.5741646785732,7.097988418240037,0.0
256.046824758844,14.574075243929405,7.09566334468966,0.0
257.04702572347423,14.573986046313816,7.093348301214778,0.0
258.04722668810444,14.573897084168445,7.091043205727816,0.0
259.04742765273465,14.573808355951558,7.08874797712803,0.0
260.04762861736486,14.573719860137452,7.0864625352858805,0.0
261.0478295819951,14.573631595216224,7.0841868010277285,0.0
262.0480305466253,14.573543559693546,7.081920696120807,0.0
263.0482315112555,14.573455752090446,7.07966414325851,0.0
264.0484324758857,14.573368170943096,7.077417066045953,0.0
265.0486334405159,14.573280814802594,7.075179388985802,0.0
266.0488344051461,14.573193682234761,7.0729510374644065,0.0
267.04903536977633,14.573106771819933,7.070731937738161,0.0
268.04923633440654,14.573020082152764,7.0685220169201575,0.0
269.04943729903675,14.572933611842023,7.066321202967076,0.0
270.04963826366696,14.572847359510407,7.064129424666321,0.0
271.0498392282972,14.572761323794342,7.061946611623416,0.0
272.0500401929274,14.572675503343808,7.059772694249617,0.0
273.0502411575576,14.572589896822143,7.057607603749776,0.0
274.0504421221878,14.572504502905868,7.055451272110416,0.0
275.050643086818,14.57241932028451,7.053303632088033,0.0
276.0508440514482,14.572334347660423,7.051164617197621,0.0
277.05104501607843,14.572249583748619,7.049034161701398,0.0
278.05124598070864,14.572165027276602,7.046912200597754,0.0
279.05144694533885,14.572080676984196,7.044798669610385,0.0
280.05164790996906,14.57199653162339,7.042693505177631,0.0
281.0518488745993,14.571912589958163,7.040596644442028,0.0
282.0520498392295,14.571828850764348,7.038508025240008,0.0
283.0522508038597,14.571745312829457,7.036427586091833,0.0
284.0524517684899,14.571661974952535,7.034355266191669,0.0
285.0526527331201,14.571578835944019,7.0322910053978624,0.0
286.0528536977503,14.571495894625574,7.030234744223396,0.0
287.05305466238053,14.571413149829963,7.028186423826472,0.0
288.05325562701074,14.571330600400895,7.026145986001339,0.0
289.05345659164095,14.571248245192887,7.02411337316919,0.0
290.05365755627116,14.571166083071128,7.022088528369293,0.0
291.0538585209014,14.571084112911342,7.020071395250255,0.0
292.0540594855316,14.571002333599647,7.018061918061415,0.0
293.0542604501618,14.57092074403244,7.016060041644424,0.0
294.054461414792,14.57083934311625,7.014065711424957,0.0
295.0546623794222,14.57075812976762,7.012078873404548,0.0
296.0548633440524,14.570677102912983,7.0100994741526055,0.0
297.05506430868263,14.570596261488532,7.008127460798542,0.0
298.05526527331284,14.570515604440104,7.006162781024031,0.0
299.05546623794305,14.570435130723057,7.004205383055416,0.0
300.05566720257326,14.570354839302155,7.002255215656241,0.0
301.05586816720347,14.57027472915145,7.000312228119899,0.0
302.0560691318337,14.570194799254171,6.998376370262431,0.0
303.0562700964639,14.570115048602608,6.9964475924154,0.0
304.0564710610941,14.570035476198004,6.9945258454189485,0.0
305.0566720257243,14.569956081050448,6.992611080614909,0.0
306.0568729903545,14.569876862178761,6.990703249840074,0.0
307.05707395498473,14.569797818610398,6.988802305419556,0.0
308.05727491961494,14.569718949381343,6.986908200160272,0.0
309.05747588424515,14.569640253536,6.985020887344518,0.0
310.05767684887536,14.569561730127104,6.983140320723669,0.0
311.05787781350557,14.569483378215608,6.981266454511967,0.0
312.0580787781358,14.569405196870598,6.979399243380421,0.0
313.058279742766,14.569327185169186,6.977538642450801,0.0
314.0584807073962,14.569249342196427,6.9756846072897325,0.0
315.0586816720264,14.569171667045213,6.97383709390289,0.0
316.0588826366566,14.569094158816192,6.971996058729278,0.0
317.05908360128683,14.569016816617669,6.9701614586356,0.0
318.05928456591704,14.568939639565523,6.968333250910735,0.0
319.05948553054725,14.568862626783112,6.966511393260294,0.0
320.05968649517746,14.568785777401196,6.964695843801252,0.0
321.05988745980767,14.568709090557844,6.962886561056687,0.0
322.0600884244379,14.568632565398353,6.961083503950579,0.0
323.0602893890681,14.568556201075163,6.959286631802721,0.0
324.0604903536983,14.568479996747778,6.957495904323668,0.0
325.0606913183285,14.568403951582681,6.955711281609824,0.0
326.0608922829587,14.568328064753263,6.953932724138539,0.0
327.06109324758893,14.568252335439736,6.9521601927633405,0.0
328.06129421221914,14.56817676282906,6.950393648709204,0.0
329.06149517684935,14.568101346114867,6.94863305356791,0.0
330.06169614147956,14.568026084497385,6.946878369293474,0.0
331.06189710610977,14.567950977183365,6.945129558197641,0.0
332.06209807074,14.56787602338601,6.943386582945456,0.0
333.0622990353702,14.567801222324897,6.941649406550896,0.0
334.0625000000004,14.567726573225917,6.93991799237258,0.0
335.0627009646306,14.567652075321192,6.938192304109524,0.0
336.0629019292608,14.567577727849017,6.936472305796986,0.0
337.063102893891,14.567503530053786,6.934757961802346,0.0
338.06330385852124,14.56742948118593,6.933049236821088,0.0
339.06350482315145,14.567355580501848,6.93134609587279,0.0
340.06370578778166,14.56728182726384,6.929648504297234,0.0
341.06390675241187,14.567208220740044,6.927956427750511,0.0
342.0641077170421,14.56713476020438,6.926269832201237,0.0
343.0643086816723,14.567061444936478,6.9245886839268,0.0
344.0645096463025,14.56698827422162,6.9229129495096675,0.0
345.0647106109327,14.56691524735068,6.92124259583375,0.0
346.0649115755629,14.566842363620063,6.919577590080811,0.0
347.0651125401931,14.566769622331648,6.917917899726941,0.0
348.06531350482334,14.566697022792727,6.916263492539088,0.0
349.06551446945355,14.56662456431595,6.914614336571603,0.0
350.06571543408376,14.566552246219263,6.912970400162891,0.0
351.06591639871397,14.566480067825864,6.911331651932068,0.0
352.0661173633442,14.566408028464133,6.909698060775677,0.0
353.0663183279744,14.566336127467588,6.908069595864465,0.0
354.0665192926046,14.56626436417483,6.906446226640192,0.0
355.0667202572348,14.56619273792948,6.904827922812487,0.0
356.066921221865,14.566121248080146,6.903214654355763,0.0
357.0671221864952,14.566049893980349,6.9016063915061565,0.0
358.06732315112544,14.56597867498849,6.90000310475852,0.0
359.06752411575565,14.56590759046779,6.89840476486347,0.0
