Time,Mass,Radius,Lx
23.0,14.63349375081365,8.74,0.0
24.000200964630224,14.628783634331418,8.705105093473245,0.0
25.00040192926045,14.624134754100757,8.671730201079708,0.0
26.000602893890672,14.619543911931695,8.639750570770097,0.0
27.000803858520896,14.615008194206352,8.609056025486352,0.0
28.00100482315112,14.610524936960857,8.57954879160654,0.0
29.001205787781345,14.606091696344224,8.551141715825112,0.0
30.00140675241157,14.60170622346963,8.52375679016966,0.0
31.001607717041793,14.597366442880553,8.49732392354447,0.0
32.00180868167202,14.593070434012494,8.47177991207516,0.0
33.00200964630224,14.588816415153115,8.447067570952708,0.0
34.002210610932465,14.58460272949864,8.42313499837913,0.0
35.00241157556269,14.580427832979078,8.399934948265656,0.0
36.002612540192914,14.576290283583782,8.377424293002914,0.0
37.00281350482314,14.572188731965984,8.35556356125543,0.0
38.00301446945336,14.568121913142654,8.334316538581087,0.0
39.003215434083586,14.564088639136585,8.313649920925224,0.0
40.00341639871381,14.560087792432318,8.29353301282718,0.0
41.003617363344034,14.556118320137836,8.27393746360751,0.0
42.00381832797426,14.552179228760561,8.254837035955527,0.0
43.00401929260448,14.548269579519944,8.236207402268695,0.0
44.00422025723471,14.544388484130335,8.218025964853949,0.0
45.00442122186493,14.540535100997362,8.200271696721456,0.0
46.004622186495155,14.536708631778966,8.18292500021126,0.0
47.00482315112538,14.53290831826899,8.165967581114616,0.0
48.0050241157556,14.529133439566849,8.149382336301052,0.0
49.00522508038583,14.525383309501587,8.133153253153326,0.0
50.00542604501605,14.521657274282783,8.117265319355928,0.0
51.005627009646275,14.51795471035414,8.101704441787085,0.0
52.0058279742765,14.514275022428674,8.086457373436568,0.0
53.006028938906724,14.510617641686933,8.071511647417259,0.0
54.00622990353695,14.506982024121893,8.056855517262113,0.0
55.00643086816717,14.503367649016104,8.042477902803347,0.0
56.006631832797396,14.499774017538309,8.02836834102074,0.0
57.00683279742762,14.496200651448186,8.014516941322745,0.0
58.007033762057844,14.492647091899137,8.000914344790544,0.0
59.00723472668807,14.489112898330154,7.987551686971962,0.0
60.00743569131829,14.485597647438706,7.974420563861569,0.0
61.00763665594852,14.482100932227508,7.96151300074593,0.0
62.00783762057874,14.478622361118706,7.948821423629935,0.0
63.008038585208965,14.475161557129706,7.936338632992518,0.0
64.00823954983919,14.471718157105462,7.924057779648109,0.0
65.00844051446941,14.468291811002512,7.911972342514797,0.0
66.00864147909964,14.46488218122054,7.900076108111772,0.0
67.00884244372986,14.461488941977647,7.888363151627519,0.0
68.00904340836009,14.458111778725842,7.8768278194168975,0.0
69.00924437299031,14.454750387603628,7.865464712799978,0.0
70.00944533762053,14.451404474922821,7.85426867304845,0.0
71.00964630225076,14.448073756686995,7.8432347674569005,0.0
72.00984726688098,14.444757958139194,7.832358276406527,0.0
73.0100482315112,14.44145681333675,7.821634681337784,0.0
74.01024919614143,14.438170064751223,7.811059653556628,0.0
75.01045016077165,14.434897462891676,7.800629043806156,0.0
76.01065112540188,14.431638765949621,7.790338872541817,0.0
77.0108520900321,14.428393739464113,7.780185320854169,0.0
78.01105305466233,14.425162156005618,7.770164721988245,0.0
79.01125401929255,14.421943794877366,7.760273553413201,0.0
80.01145498392277,14.418738441833012,7.75050842940006,0.0
81.011655948553,14.415545888809522,7.740866094069075,0.0
82.01185691318322,14.412365933674293,7.731343414871631,0.0
83.01205787781345,14.409198379985574,7.7219373764745125,0.0
84.01225884244367,14.406043036765334,7.712645075017232,0.0
85.0124598070739,14.402899718283813,7.703463712715495,0.0
86.01266077170412,14.399768243854982,7.694390592786098,0.0
87.01286173633434,14.396648437642293,7.685423114670662,0.0
88.01306270096457,14.393540128474038,7.676558769537349,0.0
89.01326366559479,14.390443149667774,7.667795136041432,0.0
90.01346463022502,14.387357338863248,7.659129876327107,0.0
91.01366559485524,14.384282537863342,7.650560732254267,0.0
92.01386655948546,14.381218592482547,7.6420855218353,0.0
93.01406752411569,14.378165352402553,7.633702135868035,0.0
94.01426848874591,14.375122671034523,7.62540853475207,0.0
95.01446945337614,14.372090405387706,7.617202745476666,0.0
96.01467041800636,14.369068415943998,7.609082858769225,0.0
97.01487138263658,14.366056566538157,7.601047026394264,0.0
98.01507234726681,14.363054724243327,7.5930934585934295,0.0
99.01527331189703,14.360062759261611,7.5852204216578425,0.0
100.01547427652726,14.357080544819418,7.577426235624703,0.0
101.01567524115748,14.35410795706731,7.569709272090558,0.0
102.0158762057877,14.351144874984133,7.56206795213429,0.0
103.01607717041793,14.348191180285205,7.554500744343258,0.0
104.01627813504815,14.34524675733435,7.547006162936553,0.0
105.01647909967838,14.342311493059563,7.539582765979672,0.0
106.0166800643086,14.339385276872171,7.532229153685368,0.0
107.01688102893883,14.336468000589253,7.524943966795707,0.0
108.01708199356905,14.333559558359202,7.517725885040761,0.0
109.01728295819927,14.330659846590258,7.510573625669622,0.0
110.0174839228295,14.327768763881872,7.5034859420497,0.0
111.01768488745972,14.324886210958752,7.496461622330557,0.0
112.01788585208995,14.32201209060748,7.489499488168757,0.0
113.01808681672017,14.319146307615567,7.482598393510401,0.0
114.0182877813504,14.316288768712832,7.4757572234282605,0.0
115.01848874598062,14.313439382515005,7.468974893010644,0.0
116.01868971061084,14.310598059469436,7.462250346299188,0.0
117.01889067524107,14.30776471180283,7.455582555273089,0.0
118.01909163987129,14.304939253470906,7.448970518877328,0.0
119.01929260450152,14.302121600109892,7.442413262092645,0.0
120.01949356913174,14.29931166898979,7.435909835045116,0.0
121.01969453376196,14.2965093789693,7.429459312153343,0.0
122.01989549839219,14.293714650452376,7.423060791311384,0.0
123.02009646302241,14.29092740534629,7.416713393105612,0.0
124.02029742765264,14.28814756702119,7.410416260063855,0.0
125.02049839228286,14.285375060271052,7.404168555935238,0.0
126.02069935691308,14.282609811275984,7.397969464999223,0.0
127.02090032154331,14.279851747565813,7.391818191402443,0.0
128.02110128617355,14.277100797984918,7.385713958522025,0.0
129.02130225080379,14.274356892658243,7.379656008354107,0.0
130.02150321543402,14.271619962958441,7.373643600926396,0.0
131.02170418006426,14.26888994147412,7.367676013733634,0.0
132.0219051446945,14.26616676197912,7.361752541194907,0.0
133.02210610932474,14.263450359402809,7.355872494131807,0.0
134.02230707395498,14.260740669801324,7.35003519926647,0.0
135.02250803858522,14.258037630329754,7.344239998738612,0.0
136.02270900321545,14.255341179215204,7.3384862496407095,0.0
137.0229099678457,14.252651255730708,7.3327733235705015,0.0
138.02311093247593,14.249967800169976,7.3271006062000446,0.0
139.02331189710617,14.247290753822918,7.321467496860617,0.0
140.0235128617364,14.24462005895193,7.315873408142744,0.0
141.02371382636665,14.241955658768918,7.310317765510728,0.0
142.02391479099688,14.23929749741301,7.304800006931032,0.0
143.02411575562712,14.236645519928963,7.29931958251391,0.0
144.02431672025736,14.2339996722462,7.293875954167788,0.0
145.0245176848876,14.231359901158497,7.288468595265773,0.0
146.02471864951784,14.228726154304251,7.283096990323848,0.0
147.02491961414808,14.226098380147354,7.277760634690228,0.0
148.0251205787783,14.223476527958606,7.27245903424544,0.0
149.02532154340855,14.22086054779769,7.26719170511268,0.0
150.0255225080388,14.218250390495646,7.261958173378012,0.0
151.02572347266903,14.215646007637872,7.256757974820047,0.0
152.02592443729927,14.21304735154759,7.251590654648668,0.0
153.0261254019295,14.2104543752698,7.246455767252513,0.0
154.02632636655974,14.207867032555662,7.241352875954782,0.0
155.02652733118998,14.205285277847343,7.2362815527771165,0.0
156.02672829582022,14.202709066263266,7.231241378211193,0.0
157.02692926045046,14.20013835358377,7.22623194099773,0.0
158.0271302250807,14.19757309623717,7.221252837912656,0.0
159.02733118971094,14.19501325128619,7.216303673560105,0.0
160.02753215434117,14.192458776414767,7.211384060172062,0.0
161.0277331189714,14.189909629915217,7.206493617414306,0.0
162.02793408360165,14.18736577067573,7.2016319721985,0.0
163.0281350482319,14.184827158168206,7.196798758500153,0.0
164.02833601286213,14.18229375243642,7.191993617182236,0.0
165.02853697749237,14.179765514084483,7.187216195824272,0.0
166.0287379421226,14.177242404265616,7.182466148556651,0.0
167.02893890675284,14.174724384671208,7.177743135900034,0.0
168.02913987138308,14.172211417520165,7.173046824609612,0.0
169.02934083601332,14.16970346554852,7.168376887524074,0.0
170.02954180064356,14.167200491999322,7.163733003419113,0.0
171.0297427652738,14.16470246061277,7.159114856865292,0.0
172.02994372990403,14.162209335616598,7.154522138090119,0.0
173.03014469453427,14.159721081716713,7.149954542844213,0.0
174.0303456591645,14.15723766408804,7.1454117722713715,0.0
175.03054662379475,14.154759048365625,7.140893532782414,0.0
176.030747588425,14.152285200635934,7.136399535932728,0.0
177.03094855305523,14.149816087428372,7.131929498303283,0.0
178.03114951768546,14.147351675707016,7.127483141385101,0.0
179.0313504823157,14.144891932862535,7.123060191466985,0.0
180.03155144694594,14.142436826704314,7.118660379526466,0.0
181.03175241157618,14.139986325452762,7.114283441123762,0.0
182.03195337620642,14.13754039773181,7.109929116298783,0.0
183.03215434083666,14.135099012561573,7.105597149470944,0.0
184.0323553054669,14.1326621393512,7.10128728934178,0.0
185.03255627009713,14.130229747891882,7.09699928880025,0.0
186.03275723472737,14.127801808350025,7.092732904830619,0.0
187.0329581993576,14.125378291260583,7.088487898422871,0.0
188.03315916398785,14.122959167520543,7.08426403448553,0.0
189.03336012861809,14.120544408382559,7.080061081760858,0.0
190.03356109324832,14.118133985448729,7.075878812742294,0.0
191.03376205787856,14.115727870664523,7.071717003594134,0.0
192.0339630225088,14.113326036312834,7.067575434073319,0.0
193.03416398713904,14.110928455008173,7.063453887453299,0.0
194.03436495176928,14.108535099690986,7.059352150449882,0.0
195.03456591639952,14.106145943622106,7.055270013149041,0.0
196.03476688102975,14.103760960377322,7.051207268936597,0.0
197.03496784566,14.101380123842063,7.047163714429699,0.0
198.03516881029023,14.099003408206206,7.0431391494101,0.0
199.03536977492047,14.096630787959,7.0391333767591036,0.0
200.0355707395507,14.094262237884084,7.0351462023942055,0.0
201.03577170418095,14.091897733054632,7.031177435207322,0.0
202.03597266881118,14.089537248828583,7.027226887004577,0.0
203.03617363344142,14.08718076084399,7.023294372447603,0.0
204.03637459807166,14.08482824501446,7.019379708996311,0.0
205.0365755627019,14.082479677524685,7.015482716853079,0.0
206.03677652733214,14.080135034826075,7.0116032189083235,0.0
207.03697749196238,14.07779429363248,7.00774104068741,0.0
208.0371784565926,14.075457430915998,7.00389601029886,0.0
209.03737942122285,14.073124423902877,7.000067958383831,0.0
210.0375803858531,14.070795250069493,6.9962567180668085,0.0
211.03778135048333,14.068469887138415,6.992462124907501,0.0
212.03798231511357,14.066148313074548,6.988684016853879,0.0
213.0381832797438,14.063830506081363,6.984922234196354,0.0
214.03838424437404,14.061516444597187,6.98117661952303,0.0
215.03858520900428,14.059206107291583,6.977447017676019,0.0
216.03878617363452,14.056899473061794,6.973733275708806,0.0
217.03898713826476,14.05459652102926,6.970035242844579,0.0
218.039188102895,14.052297230536208,6.966352770435579,0.0
219.03938906752524,14.050001581142302,6.962685711923347,0.0
220.03959003215547,14.047709552621363,6.959033922799922,0.0
221.0397909967857,14.045421124958157,6.9553972605699315,0.0
222.03999196141595,14.043136278345235,6.951775584713536,0.0
223.0401929260462,14.040854993179847,6.948168756650238,0.0
224.04039389067643,14.038577250060907,6.944576639703504,0.0
225.04059485530667,14.036303029786017,6.940999099066177,0.0
226.0407958199369,14.034032313348554,6.937436001766695,0.0
227.04099678456714,14.031765081934804,6.93388721663605,0.0
228.04119774919738,14.029501316921158,6.930352614275478,0.0
229.04139871382762,14.027240999871353,6.926832067024886,0.0
230.04159967845786,14.024984112533778,6.923325448931969,0.0
231.0418006430881,14.022730636838814,6.919832635721997,0.0
232.04200160771833,14.020480554896235,6.916353504768294,0.0
233.04220257234857,14.018233848992653,6.912887935063322,0.0
234.0424035369788,14.015990501589009,6.909435807190437,0.0
235.04260450160905,14.013750495318119,6.905997003296225,0.0
236.0428054662393,14.01151381298225,6.902571407063444,0.0
237.04300643086953,14.009280437550753,6.899158903684556,0.0
238.04320739549976,14.007050352157735,6.895759379835816,0.0
239.04340836013,14.004823540099768,6.8923727236519134,0.0
240.04360932476024,14.002600164957025,6.888998907801897,0.0
241.04381028939048,14.000393243048398,6.88564383687425,0.0
242.04401125402072,13.998213867976185,6.882312532916734,0.0
243.04421221865096,13.996061578169975,6.879004688766685,0.0
244.0444131832812,13.993935921752662,6.875720002755221,0.0
245.04461414791143,13.991836456296083,6.872458178585012,0.0
246.04481511254167,13.989762748583823,6.869218925211241,0.0
247.0450160771719,13.987714374380973,6.8660019567256665,0.0
248.04521704180215,13.985690918210583,6.862806992243717,0.0
249.04541800643239,13.983691973136606,6.8596337557944995,0.0
250.04561897106262,13.981717140553105,6.856481976213647,0.0
251.04581993569286,13.979766029979526,6.853351387038954,0.0
252.0460209003231,13.977838258861837,6.8502417264086315,0.0
253.04622186495334,13.975933452379337,6.847152736962222,0.0
254.04642282958358,13.974051243256948,6.844084165743979,0.0
255.04662379421382,13.972191271582828,6.841035764108746,0.0
256.046824758844,13.970353184631115,6.838007287630177,0.0
257.04702572347423,13.968536636689647,6.834998496011281,0.0
258.04722668810444,13.966741288892496,6.8320091529972125,0.0
259.04742765273465,13.964966809057163,6.829039026290223,0.0
260.04762861736486,13.963212871526288,6.826087887466761,0.0
261.0478295819951,13.961479157013727,6.823155511896589,0.0
262.0480305466253,13.959765352454866,6.820241678663926,0.0
263.0482315112555,13.958071150861029,6.81734617049052,0.0
264.0484324758857,13.956396251177866,6.814468773660618,0.0
265.0486334405159,13.954740358147584,6.811609277947744,0.0
266.0488344051461,13.953103182174903,6.808767476543295,0.0
267.04903536977633,13.951484439196637,6.8059431659868395,0.0
268.04923633440654,13.94988385055477,6.8031361460981135,0.0
269.04943729903675,13.948301142872925,6.800346219910663,0.0
270.04963826366696,13.946736047936135,6.79757319360705,0.0
271.0498392282972,13.94518830257379,6.7948168764556485,0.0
272.0500401929274,13.943657648545697,6.7920770807489,0.0
273.0502411575576,13.942143832431128,6.789353621743089,0.0
274.0504421221878,13.940646605520785,6.786646317599484,0.0
275.050643086818,13.939165723711588,6.783954989326915,0.0
276.0508440514482,13.937700947404203,6.781279460725669,0.0
277.05104501607843,13.936252041403229,6.778619558332718,0.0
278.05124598070864,13.934818774819965,6.7759751113682025,0.0
279.05144694533885,13.933400920977679,6.77334595168319,0.0
280.05164790996906,13.93199825731931,6.770731913708612,0.0
281.0518488745993,13.930610565317526,6.768132834405394,0.0
282.0520498392295,13.929237630387071,6.765548553215734,0.0
283.0522508038597,13.927879241799342,6.762978912015484,0.0
284.0524517684899,13.926535192599122,6.760423755067652,0.0
285.0526527331201,13.925205279523402,6.757882928976905,0.0
286.0528536977503,13.923889302922255,6.755356282645167,0.0
287.05305466238053,13.922587066681677,6.7528436672281735,0.0
288.05325562701074,13.921298378148352,6.750344936093025,0.0
289.05345659164095,13.920023048056287,6.747859944776691,0.0
290.05365755627116,13.918760890455255,6.745388550945439,0.0
291.0538585209014,13.917511722641017,6.742930614355162,0.0
292.0540594855316,13.916275365087229,6.740485996812607,0.0
293.0542604501618,13.915051641379048,6.738054562137442,0.0
294.054461414792,13.91384037814833,6.735636176125158,0.0
295.0546623794222,13.91264140501042,6.733230706510801,0.0
296.0548633440524,13.911454554502457,6.730838022933495,0.0
297.05506430868263,13.91027966202318,6.72845799690173,0.0
298.05526527331284,13.909116565774175,6.726090501759414,0.0
299.05546623794305,13.907965106702529,6.7237354126526565,0.0
300.05566720257326,13.906825128444853,6.721392606497279,0.0
301.05586816720347,13.905696477272638,6.719061961947006,0.0
302.0560691318337,13.90457900203891,6.716743359362358,0.0
303.0562700964639,13.903472554126132,6.7144366807802065,0.0
304.0564710610941,13.902376987395348,6.712141809883963,0.0
305.0566720257243,13.901292158136512,6.709858631974429,0.0
306.0568729903545,13.900217925019975,6.707587033941225,0.0
307.05707395498473,13.899154149049116,6.7053269042348695,0.0
308.05727491961494,13.898100693514055,6.703078132839401,0.0
309.05747588424515,13.897057423946453,6.7008406112456065,0.0
310.05767684887536,13.896024208075346,6.698614232424788,0.0
311.05787781350557,13.895000915783994,6.6963988908030885,0.0
312.0580787781358,13.893987419067727,6.69419448223635,0.0
313.058279742766,13.89298359199274,6.692000903985484,0.0
314.0584807073962,13.89198931065584,6.689818054692351,0.0
315.0586816720264,13.891004453145097,6.6876458343561485,0.0
316.0588826366566,13.890028899501388,6.685484144310273,0.0
317.05908360128683,13.889062531680807,6.683332887199644,0.0
318.05928456591704,13.88810523351792,6.681191966958512,0.0
319.05948553054725,13.887156890689837,6.679061288788706,0.0
320.05968649517746,13.886217390681104,6.676940759138317,0.0
321.05988745980767,13.885286622749346,6.674830285680816,0.0
322.0600884244379,13.884364477891703,6.672729777294588,0.0
323.0602893890681,13.883450848811982,6.670639144042889,0.0
324.0604903536983,13.882545629888554,6.668558297154181,0.0
325.0606913183285,13.881648717142935,6.666487149002876,0.0
326.0608922829587,13.880760008209078,6.66442561309046,0.0
327.06109324758893,13.879879402303311,6.662373604026982,0.0
328.06129421221914,13.879006800194947,6.660331037512911,0.0
329.06149517684935,13.878142104177524,6.658297830321359,0.0
330.06169614147956,13.877285218040667,6.656273900280642,0.0
331.06189710610977,13.876436047042553,6.65425916625718,0.0
332.06209807074,13.875594497882975,6.652253548138736,0.0
333.0622990353702,13.874760478676977,6.650256966817981,0.0
334.0625000000004,13.873933898929053,6.648269344176374,0.0
335.0627009646306,13.873114669507896,6.646290603068351,0.0
336.0629019292608,13.87230270262168,6.644320667305827,0.0
337.063102893891,13.871497911793869,6.6423594616429735,0.0
338.06330385852124,13.870700211839528,6.640406911761318,0.0
339.06350482315145,13.869909518842148,6.638462944255101,0.0
340.06370578778166,13.869125750130932,6.636527486616927,0.0
341.06390675241187,13.868348824258579,6.634600467223674,0.0
342.0641077170421,13.867578660979518,6.632681815322682,0.0
343.0643086816723,13.8668151812286,6.630771461018194,0.0
344.0645096463025,13.866058307100216,6.628869335258052,0.0
345.0647106109327,13.865307961827876,6.62697536982064,0.0
346.0649115755629,13.864564069764173,6.625089497302076,0.0
347.0651125401931,13.863826556361186,6.62321165110364,0.0
348.06531350482334,13.863095348151267,6.621341765419427,0.0
349.06551446945355,13.862370372728229,6.619479775224242,0.0
350.06571543408376,13.86165155872891,6.61762561626171,0.0
351.06591639871397,13.860938835815114,6.615779225032597,0.0
352.0661173633442,13.860232134655918,6.6139405387833605,0.0
353.0663183279744,13.859531386910334,6.612109495494908,0.0
354.0665192926046,13.858836525210315,6.610286033871526,0.0
355.0667202572348,13.858147483144114,6.608470093330073,0.0
356.066921221865,13.857464195239963,6.606661613989308,0.0
357.0671221864952,13.856786596950078,6.604860536659437,0.0
358.06732315112544,13.85611462463499,6.60306680283186,0.0
359.06752411575565,13.855448215548183,6.601280354669072,0.0
