Time,Mass,Radius,Lx
23.0,14.63349375081365,8.74,0.0
24.000200964630224,14.628884209205891,8.705155793697458,0.0
25.00040192926045,14.624522651784126,8.671925088846937,0.0
26.000602893890672,14.620386484003271,8.64017254172568,0.0
27.000803858520896,14.61645594582383,8.60977885222768,0.0
28.00100482315112,14.612713666020749,8.580638346959635,0.0
29.001205787781345,14.609144299734497,8.552656998549745,0.0
30.00140675241157,14.605734231426219,8.52575079030979,0.0
31.001607717041793,14.602471329680032,8.499844356676633,0.0
32.00180868167202,14.59934474344621,8.474869845640862,0.0
33.00200964630224,14.59634473166309,8.450765961196034,0.0
34.002210610932465,14.593462519957578,8.427477152792576,0.0
35.00241157556269,14.590690179461165,8.404952925617637,0.0
36.002612540192914,14.588020523802047,8.383147250790692,0.0
37.00281350482314,14.585447021124258,8.362018058657563,0.0
38.00301446945336,14.582963718599654,8.341526801569417,0.0
39.003215434083586,14.580565177380622,8.321638075059402,0.0
40.00341639871381,14.578246416321836,8.302319288334786,0.0
41.003617363344034,14.576002863101676,8.283540376604515,0.0
42.00381832797426,14.573830311615605,8.265273549049683,0.0
43.00401929260448,14.571724884708102,8.24749306728522,0.0
44.00422025723471,14.569683001466935,8.230175050007157,0.0
45.00442122186493,14.567701348431306,8.213297300210964,0.0
46.004622186495155,14.565776854169798,8.196839151933913,0.0
47.00482315112538,14.563906666769713,8.18078133394246,0.0
48.0050241157556,14.562088133850159,8.165105848173551,0.0
49.00522508038583,14.560318784769708,8.149795861061335,0.0
50.00542604501605,14.5585963147482,8.134835606150517,0.0
51.005627009646275,14.556918570662948,8.120210296623593,0.0
52.0058279742765,14.555283538313656,8.105906046559715,0.0
53.006028938906724,14.553689330979145,8.09190979990367,0.0
54.00622990353695,14.55213417911309,8.078209266259922,0.0
55.00643086816717,14.550616421046616,8.064792862742586,0.0
56.006631832797396,14.549134494582978,8.051649661211211,0.0
57.00683279742762,14.547686929384447,8.038769340306995,0.0
58.007033762057844,14.546272340064272,8.026142141776651,0.0
59.00723472668807,14.544889419907447,8.01375883063392,0.0
60.00743569131829,14.54353693515347,8.00161065876255,0.0
61.00763665594852,14.542213719782303,7.98968933161148,0.0
62.00783762057874,14.540918670751797,7.977986977673449,0.0
63.008038585208965,14.539650743640886,7.966496120473558,0.0
64.00823954983919,14.538408948658121,7.955209652825031,0.0
65.00844051446941,14.537192346979733,7.944120813136401,0.0
66.00864147909964,14.536000047385375,7.933223163577699,0.0
67.00884244372986,14.53483120316326,7.922510569934108,0.0
68.00904340836009,14.533685009259418,7.911977182993473,0.0
69.00924437299031,14.532560699648569,7.901617421330233,0.0
70.00944533762053,14.531457544906388,7.8914259553623936,0.0
71.00964630225076,14.53037484996515,7.881397692570639,0.0
72.00984726688098,14.529311952036496,7.871527763779817,0.0
73.0100482315112,14.528268218686744,7.861811510412824,0.0
74.01024919614143,14.527243046051636,7.852244472635624,0.0
75.01045016077165,14.526235857178662,7.842822378319989,0.0
76.01065112540188,14.525246100486283,7.83354113275748,0.0
77.0108520900321,14.524273248330385,7.824396809064323,0.0
78.01105305466233,14.523316795669212,7.815385639222496,0.0
79.01125401929255,14.52237625881885,7.806504005707234,0.0
80.01145498392277,14.521451174292052,7.797748433655702,0.0
81.011655948553,14.520541097713846,7.789115583535521,0.0
82.01185691318322,14.519645602807993,7.78060224427553,0.0
83.01205787781345,14.518764280448837,7.77220532682434,0.0
84.01225884244367,14.517896737773608,7.7639218581053075,0.0
85.0124598070739,14.517042597350658,7.755748975339035,0.0
86.01266077170412,14.516201496399468,7.7476839207070665,0.0
87.01286173633434,14.515373086058673,7.739724036332548,0.0
88.01306270096457,14.514557030698615,7.731866759555608,0.0
89.01326366559479,14.513753007275238,7.724109618483034,0.0
90.01346463022502,14.51296070472242,7.716450227793407,0.0
91.01366559485524,14.512179823380048,7.70888628478037,0.0
92.01386655948546,14.511410074455354,7.7014155656180865,0.0
93.01406752411569,14.510651179515259,7.694035921834091,0.0
94.01426848874591,14.509902870007615,7.686745276975957,0.0
95.01446945337614,14.509164886809408,7.6795416234591745,0.0
96.01467041800636,14.508436979800155,7.672423019584588,0.0
97.01487138263658,14.507718907458814,7.665387586714639,0.0
98.01507234726681,14.507010436482714,7.658433506598353,0.0
99.01527331189703,14.506311341427065,7.6515590188358615,0.0
100.01547427652726,14.505621404363758,7.644762418473828,0.0
101.01567524115748,14.504940414558238,7.638042053723783,0.0
102.0158762057877,14.504268168163305,7.631396323795924,0.0
103.01607717041793,14.503604467928835,7.624823676841496,0.0
104.01627813504815,14.502949122926408,7.61832260799728,0.0
105.01647909967838,14.502301948287977,7.611891657526211,0.0
106.0166800643086,14.501662764957707,7.605529409048538,0.0
107.01688102893883,14.501031399456226,7.599234487858279,0.0
108.01708199356905,14.500407683656531,7.593005559320144,0.0
109.01728295819927,14.499791454570907,7.5868413273423325,0.0
110.0174839228295,14.499182554148184,7.580740532920981,0.0
111.01768488745972,14.498580829080769,7.574701952752266,0.0
112.01788585208995,14.497986130620873,7.56872439790844,0.0
113.01808681672017,14.497398314405455,7.562806712574325,0.0
114.0182877813504,14.496817240289348,7.556947772840973,0.0
115.01848874598062,14.496242772186157,7.5511464855534545,0.0
116.01868971061084,14.495674777916484,7.545401787209878,0.0
117.01889067524107,14.495113129063078,7.53971264290894,0.0
118.01909163987129,14.494557700832553,7.534078045343492,0.0
119.01929260450152,14.49400837192331,7.5284970138377325,0.0
120.01949356913174,14.493465024399349,7.522968593425762,0.0
121.01969453376196,14.492927543569635,7.517491853969437,0.0
122.01989549839219,14.49239581787277,7.512065889313481,0.0
123.02009646302241,14.491869738766654,7.506689816476051,0.0
124.02029742765264,14.491349200622915,7.5013627748729395,0.0
125.02049839228286,14.490834100625838,7.496083925573808,0.0
126.02069935691308,14.49032433867559,7.490852450588807,0.0
127.02090032154331,14.489819817295505,7.485667552184227,0.0
128.02110128617355,14.489320441543247,7.480528452225654,0.0
129.02130225080379,14.488826118925648,7.475434391547406,0.0
130.02150321543402,14.488336759317038,7.470384629346972,0.0
131.02170418006426,14.487852274880915,7.465378442603283,0.0
132.0219051446945,14.487372579994778,7.46041512551769,0.0
133.02210610932474,14.486897591177982,7.455493988976626,0.0
134.02230707395498,14.486427227022462,7.450614360034919,0.0
135.02250803858522,14.485961408126201,7.445775581418852,0.0
136.02270900321545,14.485500057029313,7.4409770110480355,0.0
137.0229099678457,14.485043098152609,7.436218021575293,0.0
138.02311093247593,14.484590457738546,7.4314979999437,0.0
139.02331189710617,14.484142063794447,7.426816346960079,0.0
140.0235128617364,14.483697846037877,7.422172476884171,0.0
141.02371382636665,14.483257735844091,7.417565817032825,0.0
142.02391479099688,14.482821666195465,7.412995807398572,0.0
143.02411575562712,14.4823895716328,7.408461900281905,0.0
144.02431672025736,14.481961388208447,7.403963559936766,0.0
145.0245176848876,14.481537053441144,7.399500262228589,0.0
146.02471864951784,14.481116506272516,7.39507149430443,0.0
147.02491961414808,14.48069968702514,7.390676754274665,0.0
148.0251205787783,14.48028653736214,7.386315550905753,0.0
149.02532154340855,14.479877000248212,7.3819874033236275,0.0
150.0255225080388,14.47947101991205,7.377691840727289,0.0
151.02572347266903,14.47906854181009,7.37342840211215,0.0
152.02592443729927,14.478669512591528,7.369196636002766,0.0
153.0261254019295,14.478273880064567,7.36499610019456,0.0
154.02632636655974,14.47788159316382,7.360826361504202,0.0
155.02652733118998,14.477492601918847,7.3566869955282606,0.0
156.02672829582022,14.47710685742376,7.352577586409835,0.0
157.02692926045046,14.476724311807866,7.348497726612862,0.0
158.0271302250807,14.4763449182073,7.344447016703732,0.0
159.02733118971094,14.475968630737606,7.3404250651400424,0.0
160.02753215434117,14.475595404467242,7.336431488066092,0.0
161.0277331189714,14.475225195391948,7.332465909114962,0.0
162.02793408360165,14.47485796040997,7.328527959216856,0.0
163.0281350482319,14.474493657298098,7.32461727641353,0.0
164.02833601286213,14.474132244688462,7.320733505678508,0.0
165.02853697749237,14.473773682046112,7.316876298742947,0.0
166.0287379421226,14.473417929647281,7.313045313926882,0.0
167.02893890675284,14.473064948558374,7.309240215975679,0.0
168.02913987138308,14.472714700615601,7.305460675901509,0.0
169.02934083601332,14.47236714840527,7.301706370829644,0.0
170.02954180064356,14.472022255244687,7.2979769838494,0.0
171.0297427652738,14.471679985163654,7.294272203869594,0.0
172.02994372990403,14.471340302886547,7.2905917254783095,0.0
173.03014469453427,14.471003173814937,7.2869352488068255,0.0
174.0303456591645,14.470668564010747,7.283302479397602,0.0
175.03054662379475,14.470336440179931,7.279693128076122,0.0
176.030747588425,14.470006769656631,7.276106910826499,0.0
177.03094855305523,14.469679520387828,7.272543548670695,0.0
178.03114951768546,14.469354660918437,7.2690027675512265,0.0
179.0313504823157,14.46903216037686,7.265484298217265,0.0
180.03155144694594,14.46871198846096,7.261987876113974,0.0
181.03175241157618,14.468394115424447,7.258513241274988,0.0
182.03195337620642,14.468078512063666,7.255060138217969,0.0
183.03215434083666,14.467765149704771,7.251628315843055,0.0
184.0323553054669,14.467454000191266,7.248217527334193,0.0
185.03255627009713,14.467145035871905,7.244827530063169,0.0
186.03275723472737,14.466838229588946,7.241458085496346,0.0
187.0329581993576,14.466533554666736,7.238108959103927,0.0
188.03315916398785,14.466230984900614,7.234779920271732,0.0
189.03336012861809,14.465930494546132,7.231470742215345,0.0
190.03356109324832,14.465632058308586,7.22818120189663,0.0
191.03376205787856,14.46533565133282,7.224911079942457,0.0
192.0339630225088,14.465041249193336,7.221660160565625,0.0
193.03416398713904,14.464748827884655,7.218428231487893,0.0
194.03436495176928,14.46445836381196,7.215215083865054,0.0
195.03456591639952,14.46416983378199,7.212020512213979,0.0
196.03476688102975,14.463883214994171,7.208844314341574,0.0
197.03496784566,14.463598485032005,7.2056862912756205,0.0
198.03516881029023,14.463315621854676,7.20254624719737,0.0
199.03536977492047,14.46303460378889,7.199423989375919,0.0
200.0355707395507,14.462755409520923,7.196319328104254,0.0
201.03577170418095,14.462478018088895,7.193232076636937,0.0
202.03597266881118,14.46220240887523,7.190162051129375,0.0
203.03617363344142,14.461928561599324,7.187109070578643,0.0
204.03637459807166,14.461656456310408,7.184072956765782,0.0
205.0365755627019,14.461386073380584,7.181053534199554,0.0
206.03677652733214,14.461117393498055,7.178050630061604,0.0
207.03697749196238,14.460850397660518,7.17506407415298,0.0
208.0371784565926,14.460585067168735,7.172093698841978,0.0
209.03737942122285,14.46032138362026,7.1691393390132685,0.0
210.0375803858531,14.460059328903334,7.166200832018275,0.0
211.03778135048333,14.459798885190924,7.163278017626762,0.0
212.03798231511357,14.459540034934923,7.160370737979589,0.0
213.0381832797438,14.459282760860484,7.157478837542612,0.0
214.03838424437404,14.4590270459605,7.154602163061703,0.0
215.03858520900428,14.45877287349023,7.151740563518818,0.0
216.03878617363452,14.458520226962031,7.148893890089143,0.0
217.03898713826476,14.45826909014026,7.1460619960992435,0.0
218.039188102895,14.458019447036255,7.143244736986189,0.0
219.03938906752524,14.45777128190348,7.14044197025766,0.0
220.03959003215547,14.45752457923275,7.137653555452971,0.0
221.0397909967857,14.457279323747604,7.134879354105005,0.0
222.03999196141595,14.457035500399767,7.132119229703035,0.0
223.0401929260462,14.456793094364729,7.129373047656399,0.0
224.04039389067643,14.456552091037427,7.126640675259013,0.0
225.04059485530667,14.456312476028032,7.123921981654682,0.0
226.0407958199369,14.456074235157832,7.121216837803219,0.0
227.04099678456714,14.455837354455214,7.11852511644733,0.0
228.04119774919738,14.455601820151738,7.115846692080218,0.0
229.04139871382762,14.4553676186783,7.113181440913955,0.0
230.04159967845786,14.455134736661394,7.110529240848541,0.0
231.0418006430881,14.454903160919446,7.107889971441638,0.0
232.04200160771833,14.454672878459244,7.105263513879011,0.0
233.04220257234857,14.454443876472443,7.102649750945584,0.0
234.0424035369788,14.45421614233215,7.100048566997158,0.0
235.04260450160905,14.453989663589592,7.09745984793274,0.0
236.0428054662393,14.453764427970851,7.094883481167463,0.0
237.04300643086953,14.453540423373678,7.092319355606115,0.0
238.04320739549976,14.453317637864377,7.0897673616172305,0.0
239.04340836013,14.453096059674756,7.08722739100773,0.0
240.04360932476024,14.45287567719915,7.084699336998115,0.0
241.04381028939048,14.45265647899151,7.0821830941981965,0.0
242.04401125402072,14.452438453762547,7.079678558583318,0.0
243.04421221865096,14.452221590376945,7.077185627471103,0.0
244.0444131832812,14.452005877850647,7.074704199498688,0.0
245.04461414791143,14.451791305348172,7.0722341746004265,0.0
246.04481511254167,14.451577862180017,7.069775453986058,0.0
247.0450160771719,14.4513655378001,7.067327940119343,0.0
248.04521704180215,14.451154321803264,7.064891536697134,0.0
249.04541800643239,14.450944203922825,7.062466148628877,0.0
250.04561897106262,14.450735174028193,7.0600516820165335,0.0
251.04581993569286,14.450527222122515,7.057648044134924,0.0
252.0460209003231,14.450320338340394,7.0552551434124595,0.0
253.04622186495334,14.450114512945639,7.052872889412274,0.0
254.04642282958358,14.449909736329072,7.050501192813739,0.0
255.04662379421382,14.449705999006373,7.048139965394334,0.0
256.046824758844,14.449503291615972,7.0457891200119125,0.0
257.04702572347423,14.449301604916993,7.043448570587287,0.0
258.04722668810444,14.449100929787228,7.041118232087197,0.0
259.04742765273465,14.448901257221161,7.0387980205075795,0.0
260.04762861736486,14.448702578328028,7.036487852857201,0.0
261.0478295819951,14.448504884329918,7.034187647141589,0.0
262.0480305466253,14.448308166559913,7.0318973223473,0.0
263.0482315112555,14.44811241646027,7.029616798426467,0.0
264.0484324758857,14.447917625580631,7.027345996281683,0.0
265.0486334405159,14.447723785576269,7.025084837751145,0.0
266.0488344051461,14.447530888206382,7.022833245594107,0.0
267.04903536977633,14.447338925332406,7.020591143476604,0.0
268.04923633440654,14.447147888916373,7.018358455957445,0.0
269.04943729903675,14.446957771019287,7.016135108474495,0.0
270.04963826366696,14.446768563799553,7.013921027331188,0.0
271.0498392282972,14.446580259511418,7.011716139683314,0.0
272.0500401929274,14.446392850503448,7.009520373526062,0.0
273.0502411575576,14.446206329217043,7.00733365768129,0.0
274.0504421221878,14.44602068818497,7.005155921785041,0.0
275.050643086818,14.445835920029925,7.002987096275302,0.0
276.0508440514482,14.445652017463134,7.000827112379962,0.0
277.05104501607843,14.445468973282969,6.998675902105042,0.0
278.05124598070864,14.445286780373593,6.9965333982230895,0.0
279.05144694533885,14.445105431703636,6.994399534261824,0.0
280.05164790996906,14.44492492032489,6.992274244492975,0.0
281.0518488745993,14.444745239371034,6.990157463921328,0.0
282.0520498392295,14.444566382056378,6.988049128273969,0.0
283.0522508038597,14.444388341674632,6.985949173989727,0.0
284.0524517684899,14.444211111597703,6.983857538208802,0.0
285.0526527331201,14.444034685274508,6.98177415876259,0.0
286.0528536977503,14.443859056229812,6.979698974163679,0.0
287.05305466238053,14.443684218063089,6.9776319235960305,0.0
288.05325562701074,14.443510164447398,6.975572946905338,0.0
289.05345659164095,14.443336889128288,6.973521984589555,0.0
290.05365755627116,14.443164385922717,6.971478977789584,0.0
291.0538585209014,14.442992648717993,6.969443868280143,0.0
292.0540594855316,14.442821671470735,6.967416598460787,0.0
293.0542604501618,14.442651448205853,6.96539711134708,0.0
294.054461414792,14.44248197301554,6.963385350561932,0.0
295.0546623794222,14.442313240058292,6.96138126032708,0.0
296.0548633440524,14.442145243557944,6.9593847854547235,0.0
297.05506430868263,14.441977977802713,6.9573958713392905,0.0
298.05526527331284,14.441811437144274,6.955414463949369,0.0
299.05546623794305,14.441645615996835,6.953440509819755,0.0
300.05566720257326,14.441480508836246,6.951473956043644,0.0
301.05586816720347,14.441316110199107,6.949514750264967,0.0
302.0560691318337,14.441152414681907,6.947562840670841,0.0
303.0562700964639,14.440989416940168,6.945618175984146,0.0
304.0564710610941,14.440827111687605,6.94368070545625,0.0
305.0566720257243,14.440665493695308,6.941750378859835,0.0
306.0568729903545,14.440504557790925,6.939827146481848,0.0
307.05707395498473,14.440344298857875,6.93791095911657,0.0
308.05727491961494,14.440184711834561,6.936001768058819,0.0
309.05747588424515,14.440025791713607,6.9340995250972295,0.0
310.05767684887536,14.439867533541095,6.9322041825076735,0.0
311.05787781350557,14.439709932415834,6.930315693046785,0.0
312.0580787781358,14.439552983488625,6.92843400994558,0.0
313.058279742766,14.43939668196154,6.926559086903184,0.0
314.0584807073962,14.439241023087227,6.92469087808068,0.0
315.0586816720264,14.439086002168212,6.922829338095031,0.0
316.0588826366566,14.438931614556216,6.920974422013121,0.0
317.05908360128683,14.438777855651487,6.919126085345875,0.0
318.05928456591704,14.438624720902146,6.917284284042493,0.0
319.05948553054725,14.438472205803533,6.915448974484772,0.0
320.05968649517746,14.438320305897573,6.913620113481494,0.0
321.05988745980767,14.438169016772152,6.911797658262957,0.0
322.0600884244379,14.438018334060496,6.909981566475528,0.0
323.0602893890681,14.43786825344057,6.908171796176337,0.0
324.0604903536983,14.437718770634481,6.906368305828028,0.0
325.0606913183285,14.437569881407892,6.904571054293603,0.0
326.0608922829587,14.437421581569447,6.902780000831331,0.0
327.06109324758893,14.437273866970198,6.900995105089763,0.0
328.06129421221914,14.437126733503053,6.899216327102803,0.0
329.06149517684935,14.436980177102228,6.897443627284867,0.0
330.06169614147956,14.436834193742701,6.895676966426118,0.0
331.06189710610977,14.436688779439688,6.893916305687766,0.0
332.06209807074,14.436543930248114,6.892161606597446,0.0
333.0622990353702,14.436399642262101,6.890412831044671,0.0
334.0625000000004,14.436255911614465,6.888669941276355,0.0
335.0627009646306,14.436112734476211,6.8869328998923915,0.0
336.0629019292608,14.435970107056049,6.885201669841319,0.0
337.063102893891,14.435828025599905,6.883476214416039,0.0
338.06330385852124,14.435686486390455,6.881756497249599,0.0
339.06350482315145,14.435545485746648,6.8800424823110475,0.0
340.06370578778166,14.43540502002325,6.878334133901355,0.0
341.06390675241187,14.435265085610395,6.876631416649369,0.0
342.0641077170421,14.435125678933128,6.874934295507876,0.0
343.0643086816723,14.43498679645098,6.873242735749674,0.0
344.0645096463025,14.434848434657525,6.871556702963735,0.0
345.0647106109327,14.434710590079955,6.869876163051419,0.0
346.0649115755629,14.43457325927867,6.868201082222734,0.0
347.0651125401931,14.434436438846854,6.866531426992662,0.0
348.06531350482334,14.434300125410076,6.864867164177538,0.0
349.06551446945355,14.434164315625885,6.863208260891467,0.0
350.06571543408376,14.434029006183422,6.861554684542828,0.0
351.06591639871397,14.433894193803027,6.85990640283079,0.0
352.0661173633442,14.433759875235856,6.858263383741898,0.0
353.0663183279744,14.433626047263505,6.8566255955467135,0.0
354.0665192926046,14.433492706697647,6.854993006796494,0.0
355.0667202572348,14.433359850379654,6.853365586319928,0.0
356.066921221865,14.433227475180246,6.851743303219905,0.0
357.0671221864952,14.433095577999133,6.850126126870345,0.0
358.06732315112544,14.432964155764669,6.848514026913065,0.0
359.06752411575565,14.432833205433502,6.846906973254704,0.0
