Time,Mass,Radius,Lx
23.0,14.63349375081365,8.74,1.3e+30
24.0,14.628784574445115,8.705111947586486,1.3e+30
25.0,14.624136610385612,8.67174332466573,1.3e+30
26.0,14.619546662283037,8.639769449739877,1.3e+30
27.0,14.615011818143554,8.609080205522202,1.3e+30
28.0,14.610529415445692,8.57957786935251,1.3e+30
29.0,14.606097011625568,8.551175331632503,1.3e+30
30.0,14.601712358949893,8.523794622080745,1.3e+30
31.0,14.597373383000159,8.497365682270159,1.3e+30
32.0,14.593078164149468,8.471825336776664,1.3e+30
33.0,14.588824921535354,8.447116425678137,1.3e+30
34.0,14.58461199912696,8.423187069037212,1.3e+30
35.0,14.580437853559387,8.39999004004265,1.3e+30
36.0,14.576301043467089,8.37748222814738,1.3e+30
37.0,14.572200220095121,8.35562417717002,1.3e+30
38.0,14.568134119004814,8.334379686171864,1.3e+30
39.0,14.564101552720876,8.313715463168124,1.3e+30
40.0,14.560101404191702,8.293600823518332,1.3e+30
41.0,14.556132620954893,8.274007426269986,1.3e+30
42.0,14.552194209916605,8.254909042879685,1.3e+30
43.0,14.548285232667086,8.236281353667097,1.3e+30
44.0,14.544404801266154,8.2181017681149,1.3e+30
45.0,14.540552074441878,8.200349265747704,1.3e+30
46.0,14.536726254153663,8.183004254832575,1.3e+30
47.0,14.532926582477659,8.16604844656455,1.3e+30
48.0,14.529152338778054,8.149464742749718,1.3e+30
49.0,14.525402837132608,8.133237135289182,1.3e+30
50.0,14.521677423984837,8.117350616010542,1.3e+30
51.0,14.5179754759988,8.10179109559774,1.3e+30
52.0,14.514296398095336,8.086545330542211,1.3e+30
53.0,14.510639621651247,8.071600857183967,1.3e+30
54.0,14.50700460284506,8.056945932034694,1.3e+30
55.0,14.503390821134955,8.042569477680194,1.3e+30
56.0,14.499797777856106,8.028461033649341,1.3e+30
57.0,14.496224994926065,8.01461071171369,1.3e+30
58.0,14.492672013648153,8.001009155148004,1.3e+30
59.0,14.489138393603863,7.987647501538978,1.3e+30
60.0,14.485623711626246,7.974517348778621,1.3e+30
61.0,14.482127560847136,7.961610723921417,1.3e+30
62.0,14.478649549811744,7.948920054621441,1.3e+30
63.0,14.475189301654886,7.936438142897785,1.3e+30
64.0,14.471746453333616,7.924158141004762,1.3e+30
65.0,14.468320654911583,7.912073529208044,1.3e+30
66.0,14.464911568890908,7.900178095289297,1.3e+30
67.0,14.46151886958772,7.888465915620927,1.3e+30
68.0,14.458142242547913,7.8769313376691095,1.3e+30
69.0,14.454781383999968,7.865568963798058,1.3e+30
70.0,14.451436000341996,7.8543736362613785,1.3e+30
71.0,14.448105807660383,7.843340423277866,1.3e+30
72.0,14.4447905312777,7.832464606099343,1.3e+30
73.0,14.441489905327694,7.821741666987112,1.3e+30
74.0,14.438203672355401,7.811167278021662,1.3e+30
75.0,14.434931582940573,7.800737290677484,1.3e+30
76.0,14.431673395342763,7.790447726101229,1.3e+30
77.0,14.428428875166562,7.780294766037144,1.3e+30
78.0,14.42519779504559,7.770274744348935,1.3e+30
79.0,14.42197993434397,7.7603841390916894,1.3e+30
80.0,14.418775078874097,7.750619565091743,1.3e+30
81.0,14.415583020629633,7.740977766996,1.3e+30
82.0,14.412403557532722,7.731455612755624,1.3e+30
83.0,14.409236493194499,7.7220500875119935,1.3e+30
84.0,14.406081636688054,7.712758287855575,1.3e+30
85.0,14.402938802333054,7.703577416430816,1.3e+30
86.0,14.399807809491293,7.694504776862399,1.3e+30
87.0,14.396688482372499,7.68553776898019,1.3e+30
88.0,14.393580649849774,7.676673884322124,1.3e+30
89.0,14.390484145284073,7.667910701895849,1.3e+30
90.0,14.387398806357204,7.659245884181525,1.3e+30
91.0,14.384324474912814,7.650677173359549,1.3e+30
92.0,14.38126099680493,7.642202387748203,1.3e+30
93.0,14.378208221753589,7.633819418437426,1.3e+30
94.0,14.375166003207177,7.625526226105897,1.3e+30
95.0,14.372134198211075,7.61732083800964,1.3e+30
96.0,14.36911266728227,7.6092013451311615,1.3e+30
97.0,14.366101274289605,7.601165899479055,1.3e+30
98.0,14.363099886339349,7.593212711528581,1.3e+30
99.0,14.360108373665811,7.585340047794588,1.3e+30
100.0,14.357126609526713,7.577546228528599,1.3e+30
101.0,14.354154470103074,7.569829625532581,1.3e+30
102.0,14.351191834403378,7.562188660082375,1.3e+30
103.0,14.348238584171792,7.554621800954276,1.3e+30
104.0,14.34529460380022,7.547127562548669,1.3e+30
105.0,14.34235978024401,7.539704503105096,1.3e+30
106.0,14.33943400294113,7.532351223003452,1.3e+30
107.0,14.33651716373462,7.525066363146383,1.3e+30
108.0,14.333609156798175,7.51784860341829,1.3e+30
109.0,14.330709878564708,7.510696661216636,1.3e+30
110.0,14.327819227657722,7.503609290051532,1.3e+30
111.0,14.324937104825391,7.4965852782098334,1.3e+30
112.0,14.322063412877192,7.489623447480243,1.3e+30
113.0,14.319198056622977,7.482722651936074,1.3e+30
114.0,14.316340942814376,7.4758817767726224,1.3e+30
115.0,14.313491980088413,7.4690997371962276,1.3e+30
116.0,14.310651078913233,7.4623754773622775,1.3e+30
117.0,14.307818151535855,7.455707969359624,1.3e+30
118.0,14.304993111931845,7.449096212238995,1.3e+30
119.0,14.302175875756829,7.4425392310831295,1.3e+30
120.0,14.299366360299764,7.436036076116519,1.3e+30
121.0,14.296564484437887,7.429585821852758,1.3e+30
122.0,14.293770168593275,7.423187566277614,1.3e+30
123.0,14.290983334690926,7.416840430066021,1.3e+30
124.0,14.288203906118333,7.410543555831371,1.3e+30
125.0,14.285431807686441,7.404296107405452,1.3e+30
126.0,14.282666965591961,7.3980972691476286,1.3e+30
127.0,14.279909307380976,7.391946245281787,1.3e+30
128.0,14.277158761913778,7.385842259259748,1.3e+30
129.0,14.274415259330892,7.379784553149909,1.3e+30
130.0,14.271678731020232,7.37377238704989,1.3e+30
131.0,14.268949109585353,7.367805038522089,1.3e+30
132.0,14.266226328814744,7.361881802051094,1.3e+30
133.0,14.263510323652119,7.356001988521909,1.3e+30
134.0,14.260801030167682,7.350164924718083,1.3e+30
135.0,14.258098385530309,7.344369952838832,1.3e+30
136.0,14.255402327980617,7.338616430034275,1.3e+30
137.0,14.252712796804897,7.332903727958023,1.3e+30
138.0,14.250029732309851,7.327231232336292,1.3e+30
139.0,14.247353075798138,7.321598342552862,1.3e+30
140.0,14.24468276954466,7.316004471249197,1.3e+30
141.0,14.242018756773591,7.310449043938988,1.3e+30
142.0,14.239360981636102,7.304931498636623,1.3e+30
143.0,14.236709389188762,7.29945128549887,1.3e+30
144.0,14.234063925372595,7.2940078664792996,1.3e+30
145.0,14.231424536992762,7.288600714994839,1.3e+30
146.0,14.228791171698843,7.283229315604027,1.3e+30
147.0,14.226163777965708,7.277893163696412,1.3e+30
148.0,14.223542305074938,7.272591765192665,1.3e+30
149.0,14.220926703096808,7.267324636254992,1.3e+30
150.0,14.218316922872763,7.262091303007363,1.3e+30
151.0,14.215712915998422,7.256891301265224,1.3e+30
152.0,14.213114634807054,7.251724176274282,1.3e+30
153.0,14.210522032353529,7.246589482457992,1.3e+30
154.0,14.207935062398713,7.241486783173427,1.3e+30
155.0,14.205353679394312,7.236415650475164,1.3e+30
156.0,14.202777838468124,7.231375664886922,1.3e+30
157.0,14.200207495409712,7.226366415180603,1.3e+30
158.0,14.197642606656455,7.221387498162475,1.3e+30
159.0,14.195083129279997,7.2164385184662105,1.3e+30
160.0,14.192529020973048,7.211519088352537,1.3e+30
161.0,14.18998024003655,7.206628827515232,1.3e+30
162.0,14.18743674536718,7.201767362893214,1.3e+30
163.0,14.184898496445195,7.196934328488545,1.3e+30
164.0,14.182365453322587,7.192129365190063,1.3e+30
165.0,14.179837576611558,7.18735212060248,1.3e+30
166.0,14.177314827473287,7.182602248880743,1.3e+30
167.0,14.174797167607005,7.177879410569441,1.3e+30
168.0,14.172284559239332,7.173183272447092,1.3e+30
169.0,14.169776965113897,7.1685135073751205,1.3e+30
170.0,14.167274348481229,7.163869794151388,1.3e+30
171.0,14.164776673088891,7.159251817368075,1.3e+30
172.0,14.162283903171875,7.1546592672737805,1.3e+30
173.0,14.15979600344323,7.1500918396396855,1.3e+30
174.0,14.157312939084921,7.145549235629645,1.3e+30
175.0,14.154834675738929,7.141031161674071,1.3e+30
176.0,14.152361179498548,7.136537329347439,1.3e+30
177.0,14.149892416899919,7.132067455249372,1.3e+30
178.0,14.147428354913748,7.127621260889084,1.3e+30
179.0,14.144968960937243,7.123198472573156,1.3e+30
180.0,14.142514202786233,7.118798821296453,1.3e+30
181.0,14.140064048687478,7.114422042636143,1.3e+30
182.0,14.137618467271167,7.110067876648671,1.3e+30
183.0,14.13517742756359,7.105736067769611,1.3e+30
184.0,14.13274089897998,7.101426364716286,1.3e+30
185.0,14.130308851317528,7.09713852039307,1.3e+30
186.0,14.127881254748557,7.092872291799301,1.3e+30
187.0,14.125458079813855,7.088627439939682,1.3e+30
188.0,14.123039297416167,7.084403729737135,1.3e+30
189.0,14.12062487881382,7.080200929947978,1.3e+30
190.0,14.118214795614515,7.0760188130794095,1.3e+30
191.0,14.115809019769245,7.071857155309168,1.3e+30
192.0,14.113407523566352,7.067715736407338,1.3e+30
193.0,14.111010279625726,7.063594339660222,1.3e+30
194.0,14.108617260893118,7.059492751796203,1.3e+30
195.0,14.106228440634599,7.0554107629135565,1.3e+30
196.0,14.103843792431121,7.051348166410127,1.3e+30
197.0,14.101463290173216,7.047304758914839,1.3e+30
198.0,14.099086908055797,7.043280340220951,1.3e+30
199.0,14.09671462057308,7.039274713221046,1.3e+30
200.0,14.09434640251361,7.035287683843645,1.3e+30
201.0,14.091982228955402,7.031319060991457,1.3e+30
202.0,14.089622075261179,7.027368656481169,1.3e+30
203.0,14.087265917073717,7.023436284984765,1.3e+30
204.0,14.084913730311282,7.0195217639722784,1.3e+30
205.0,14.08256549116317,7.015624913656005,1.3e+30
206.0,14.080221176085336,7.01174555693607,1.3e+30
207.0,14.077880761796123,7.007883519347349,1.3e+30
208.0,14.075544225272067,7.004038629007681,1.3e+30
209.0,14.073211543743794,7.000210716567345,1.3e+30
210.0,14.070882694692008,6.996399615159769,1.3e+30
211.0,14.068557655843554,6.992605160353412,1.3e+30
212.0,14.066236405167563,6.988827190104834,1.3e+30
213.0,14.063918920871679,6.98506554471285,1.3e+30
214.0,14.061605181398352,6.981320066773801,1.3e+30
215.0,14.059295165421222,6.97759060113788,1.3e+30
216.0,14.056988851841558,6.97387699486649,1.3e+30
217.0,14.054686219784783,6.970179097190579,1.3e+30
218.0,14.052387248597055,6.966496759469994,1.3e+30
219.0,14.050091917841927,6.962829835153732,1.3e+30
220.0,14.047800207297065,6.959178179741151,1.3e+30
221.0,14.04551209695103,6.955541650744051,1.3e+30
222.0,14.043227567000134,6.9519201076496255,1.3e+30
223.0,14.040946597845338,6.948313411884278,1.3e+30
224.0,14.038669170089225,6.944721426778235,1.3e+30
225.0,14.036395264533029,6.941144017530982,1.3e+30
226.0,14.034124862173716,6.9375810511774745,1.3e+30
227.0,14.031857944201121,6.934032396555086,1.3e+30
228.0,14.029594491995145,6.930497924271327,1.3e+30
229.0,14.027334487122996,6.926977506672252,1.3e+30
230.0,14.025077911336496,6.923471017811593,1.3e+30
231.0,14.02282474656942,6.91997833342055,1.3e+30
232.0,14.0205749749349,6.916499330878258,1.3e+30
233.0,14.018328578722873,6.913033889182891,1.3e+30
234.0,14.016085540397563,6.909581888923405,1.3e+30
235.0,14.013845842595039,6.906143212251889,1.3e+30
236.0,14.011609468120783,6.902717742856499,1.3e+30
237.0,14.009376399947328,6.899305365935005,1.3e+30
238.0,14.007146621211929,6.895905968168869,1.3e+30
239.0,14.004920115214274,6.892519437697896,1.3e+30
240.0,14.002696865414242,6.889145664095414,1.3e+30
241.0,14.000489172722016,6.885790221775913,1.2844672346620165e+30
242.0,13.998309036231532,6.882458550453002,1.269183229129245e+30
243.0,13.996155994219558,6.879150342905236,1.2541429960944086e+30
244.0,13.99402959465929,6.875865297405991,1.2393416681912428e+30
245.0,13.99192939497591,6.872603117601209,1.224774494634076e+30
246.0,13.98985496180933,6.8693635123903345,1.2104368379647861e+30
247.0,13.987805870783859,6.866146195810373,1.1963241709032838e+30
248.0,13.985781706284603,6.862950886922949,1.1824320732978219e+30
249.0,13.983782061240328,6.859777309704295,1.1687562291715844e+30
250.0,13.98180653691261,6.856625192938109,1.1552924238621415e+30
251.0,13.979854742691035,6.853494270111121,1.142036541250493e+30
252.0,13.977926295894287,6.8503842793113865,1.1289845610765539e+30
253.0,13.976020821576881,6.847294963129137,1.1161325563380528e+30
254.0,13.97413795234141,6.844226068560179,1.1034766907699375e+30
255.0,13.97227732815609,6.841177346911724,1.0910132164014872e+30
256.0,13.970438596177457,6.838148553710621,1.0787384711884467e+30
257.0,13.968621410578024,6.835139448613868,1.066648876717594e+30
258.0,13.966825432378762,6.832149795321387,1.0547409359812557e+30
259.0,13.965050329286255,6.829179361490974,1.043011231219377e+30
260.0,13.963295775534345,6.8262279186553645,1.0314564218268452e+30
261.0,13.961561451730171,6.823295242141354,1.0200732423238525e+30
262.0,13.959847044704428,6.820381110990912,1.0088585003871654e+30
263.0,13.958152247365735,6.817485307884253,9.97809074940249e+29
264.0,13.956476758558972,6.814607619064779,9.86921914300273e+29
265.0,13.954820282927473,6.811747834265859,9.76194034380097e+29
266.0,13.953182530778934,6.808905746639397,9.656225169434025e+29
267.0,13.951563217954956,6.806081152686129,9.552045079112098e+29
268.0,13.949962065704078,6.803273852187607,9.449372157180817e+29
269.0,13.94837880055821,6.80048364813981,9.348179097163752e+29
270.0,13.946813154212359,6.797710346688369,9.248439186269674e+29
271.0,13.945264863407548,6.79495375706532,9.150126290349335e+29
272.0,13.943733669816831,6.792213691527381,9.053214839287144e+29
273.0,13.94221931993431,6.789489965295674,8.957679812813632e+29
274.0,13.940721564967063,6.7867823964968945,8.863496726725061e+29
275.0,13.939240160729904,6.78409080610586,8.770641619497121e+29
276.0,13.937774867542867,6.781415017889392,8.67909103928e+29
277.0,13.936325450131374,6.778754858351546,8.588822031262668e+29
278.0,13.93489167752896,6.7761101566800725,8.499812125394603e+29
279.0,13.933473322982517,6.773480744694174,8.412039324453583e+29
280.0,13.932070163859963,6.770866456793421,8.325482092448627e+29
281.0,13.930681981560278,6.768267129907885,8.240119343347493e+29
282.0,13.929308561425815,6.765682603449406,8.155930430118526e+29
283.0,13.927949692656853,6.7631127192639635,8.072895134077068e+29
284.0,13.9266051682283,6.7605573215851535,7.990993654526835e+29
285.0,13.925274784808495,6.758016256988718,7.91020659868719e+29
286.0,13.923958342680056,6.755489374348091,7.830514971897375e+29
287.0,13.922655645662683,6.7529765247909825,7.751900168089198e+29
288.0,13.921366501037914,6.750477561656902,7.674343960519892e+29
289.0,13.920090719475732,6.747992340455664,7.597828492757175e+29
290.0,13.918828114962984,6.7455207188268,7.522336269908814e+29
291.0,13.917578504733575,6.743062556499892,7.447850150089217e+29
292.0,13.916341709200365,6.74061771525578,7.374353336115894e+29
293.0,13.915117551888741,6.738186058888621,7.301829367428829e+29
294.0,13.913905859371802,6.735767453168801,7.230262112226009e+29
295.0,13.912706461207122,6.733361765806643,7.159635759808663e+29
296.0,13.911519189875046,6.73096886641693,7.089934813129903e+29
297.0,13.910343880718465,6.728588626484182,7.021144081540704e+29
298.0,13.909180371884046,6.726220919328702,6.953248673727363e+29
299.0,13.908028504264873,6.723865620073365,6.886233990834747e+29
300.0,13.90688812144445,6.7215226056110975,6.820085719769847e+29
301.0,13.905759069642032,6.719191754573087,6.754789826680338e+29
302.0,13.904641197659274,6.716872947297656,6.690332550602994e+29
303.0,13.903534356828104,6.714566065799808,6.626700397277004e+29
304.0,13.902438400959861,6.712270993741429,6.563880133117363e+29
305.0,13.901353186295601,6.709987616402097,6.501858779343712e+29
306.0,13.900278571457577,6.7077158206505505,6.440623606260096e+29
307.0,13.899214417401836,6.7054554949167215,6.380162127681303e+29
308.0,13.89816058737194,6.70320652916438,6.320462095501564e+29
318.0,13.88816156890191,6.681318506768557,5.762806763108028e+29
328.0,13.879059890276244,6.660455867765764,5.26940316887952e+29
338.0,13.87075033372682,6.640530163426213,4.831214541589632e+29
348.0,13.863142747969299,6.6214635555942145,4.4406919939980284e+29
358.0,13.85615952176457,6.603187236535675,4.0914957841135555e+29
368.0,13.849733539625806,6.585640124375439,3.778274784025233e+29
378.0,13.843806517094873,6.5687677797472155,3.496490815189784e+29
388.0,13.838327636963346,6.552521501144465,3.2422778249385746e+29
398.0,13.833252425701199,6.536857565508566,3.0123283096989795e+29
408.0,13.828541822828461,6.521736587540266,2.8038011877968405e+29
418.0,13.824161406192992,6.507122976595676,2.614246664676372e+29
428.0,13.820080743941002,6.492984474213097,2.4415446401191625e+29
438.0,13.81627284999399,6.479291758596231,2.283853969013221e+29
448.0,13.812713724520496,6.466018104964373,2.139570467971186e+29
458.0,13.809381964540176,6.453139092729648,2.007292005672509e+29
468.0,13.806258432663624,6.4406323520958,1.8857893588377273e+29
478.0,13.803325974235404,6.428477343982673,1.7739817829795704e+29
488.0,13.800569174946137,6.416655168236099,1.6709164558555357e+29
498.0,13.797974152415565,6.405148395937161,1.575751115555257e+29
508.0,13.795528376401174,6.393940922319874,1.4877393446727714e+29
518.0,13.79322051321644,6.383017837374215,1.4062180548081684e+29
528.0,13.791040290695902,6.372365311677463,1.330596807622469e+29
538.0,13.788978380657117,6.361970495380872,1.2603486743516262e+29
548.0,13.787026296310403,6.351821428596482,1.1950023885440141e+29
558.0,13.785176302478288,6.341906961692802,1.1341355895059297e+29
568.0,13.78342133682511,6.332216684228179,1.0773689886077213e+29
578.0,13.781754940577182,6.322740861434722,1.0243613188479524e+29
588.0,13.780171197446236,6.313470377320327,9.748049511721087e+28
598.0,13.778664679662366,6.304396683586489,9.28422080002395e+28
608.0,13.777230400184257,6.295511753669697,8.849613960527794e+28
618.0,13.775863770290057,6.286808041307475,8.44195177411691e+28
628.0,13.77456056186616,6.278278443109562,8.059167405787701e+28
638.0,13.773316873807236,6.269916264682205,7.69938202046413e+28
648.0,13.772129102022134,6.2617151899116585,7.360885084468836e+28
658.0,13.770993912609253,6.253669253062348,7.042116995039851e+28
668.0,13.769908217823536,6.245772813388056,6.741653732472936e+28
678.0,13.768869154507323,6.238020531991065,6.45819327339523e+28
688.0,13.767874064699965,6.230407350696174,6.190543540745241e+28
698.0,13.766920478177802,6.222928472733866,5.937611697399347e+28
708.0,13.766006096707512,6.215579345050941,5.698394616990736e+28
718.0,13.765128779822994,6.20835564208766,5.471970388090858e+28
728.0,13.764286531959273,6.201253250878636,5.257490727207628e+28
738.0,13.763477490797179,6.194268257350526,5.054174192529997e+28
748.0,13.762699916690066,6.187396933703539,4.86130010445587e+28
758.0,13.76195218305904,6.18063572677587,4.6782030910464125e+28
768.0,13.761232767656441,6.17398124730099,4.504268186960552e+28
778.0,13.76054024460883,6.167430259977074,4.338926423394895e+28
788.0,13.759873277160878,6.160979674276316,4.18165085430079e+28
798.0,13.759230611050308,6.1546265359290295,4.031952970852318e+28
808.0,13.75861106845184,6.148368019024277,3.889379461948381e+28
818.0,13.758013542434856,6.142201418674228,3.7535092835770062e+28
828.0,13.757436991885479,6.136124144194861,3.62395100425913e+28
838.0,13.756880436849041,6.130133712760074,3.5003403976142635e+28
848.0,13.756342954253551,6.124227743490371,3.382338256429955e+28
858.0,13.755823673978893,6.118403951940989,3.269628405537244e+28
868.0,13.755321775240114,6.112660144957555,3.161915893352262e+28
878.0,13.754836483256382,6.10699421587028,3.058925344188253e+28
888.0,13.75436706618008,6.101404140000371,2.960399455414097e+28
898.0,13.753912832263024,6.095887970454635,2.8660976252707234e+28
908.0,13.753473127239065,6.09044383418642,2.7757946986860805e+28
918.0,13.753047331904362,6.085069928302904,2.6892798197791014e+28
928.0,13.752634859878428,6.079764516600509,2.606355380936134e+28
938.0,13.752235155530627,6.074525926311734,2.526836059399152e+28
948.0,13.751847692058284,6.069352545048121,2.450547933240928e+28
958.0,13.751471969703843,6.064242817925324,2.3773276694328016e+28
968.0,13.751107514099669,6.0591952448574755,2.3070217774486685e+28
978.0,13.750753874730137,6.054208378008944,2.239485922505422e+28
988.0,13.75041062350159,6.04928081939271,2.1745842931249804e+28
998.0,13.750077353411585,6.044411218605282,2.1121890182247567e+28
1008.0,13.749752391021914,6.039597727160537,2.0737187673396375e+28
