Time,Mass,Radius,Lx
23.0,14.63349375081365,8.74,1.3000000000000013e+30
24.0,14.628885109657524,8.705162627851704,1.2408767949134143e+30
25.0,14.62452435778998,8.671938137185965,1.1866955048657582e+30
26.0,14.62038891337922,8.64019126074476,1.1368691920015191e+30
27.0,14.616459027013143,8.609802763032512,1.0908997490675534e+30
28.0,14.612717336410588,8.580667025602875,1.048361767705471e+30
29.0,14.609148504286232,8.552690068092472,1.0088897907278946e+30
30.0,14.60573892155275,8.525787914253133,9.721681495277018e+29
31.0,14.602476462319215,8.499885233490902,9.379227960057958e+29
32.0,14.599350280291183,8.474914204180426,9.059146875551647e+29
33.0,14.59635063851909,8.45081355683431,8.759343917516788e+29
34.0,14.593468766201426,8.427527764146353,8.47797656640924e+29
35.0,14.590696737584647,8.40500635175671,8.213417511904835e+29
36.0,14.588027369024237,8.383203308849561,7.964224243547878e+29
37.0,14.585454131060848,8.362076581782073,7.7291136430766e+29
38.0,14.582971072979658,8.34158763714384,7.506940645929665e+29
39.0,14.580572757802667,8.321701083169527,7.296680232716395e+29
40.0,14.578254206043669,8.302384340430566,7.097412160825556e+29
41.0,14.576010846857699,8.283607354332144,6.908307962644598e+29
42.0,14.57383847545813,8.265342343228172,6.72861982800736e+29
43.0,14.571733215868788,8.247563577006666,6.557671060380727e+29
44.0,14.569691488235451,8.230247181843351,6.394847853351272e+29
45.0,14.567709980048761,8.21337096751168,6.239592179507121e+29
46.0,14.56578562073485,8.196914274204545,6.091395620352419e+29
47.0,14.563915559155651,8.180857836290587,5.949793995370995e+29
48.0,14.562097143631451,8.165183660815494,5.8143626722557776e+29
49.0,14.560327904156784,8.149874918881162,5.6847124597894446e+29
50.0,14.55860553652941,8.13491584830497,5.560486000793211e+29
51.0,14.556927888152769,8.120291666187393,5.441354595654172e+29
52.0,14.5552929453064,8.105988490206386,5.327015397747416e+29
53.0,14.55369882170746,8.091993267617777,5.217188931022641e+29
54.0,14.552143748210712,8.078293711077082,5.1116168874720316e+29
55.0,14.550626063514853,8.064878240514135,5.010060168413015e+29
56.0,14.549144205760502,8.051735930390812,4.912297138727708e+29
57.0,14.547696704920016,8.03885646175675,4.818122067578821e+29
58.0,14.546282175892047,8.026230078590695,4.7273437328139695e+29
59.0,14.544899312224638,8.013847547977619,4.639784169393824e+29
60.0,14.543546880400035,8.001700123725687,4.555277544830118e+29
61.0,14.542223714622498,7.989779513074032,4.4736691468751415e+29
62.0,14.540928712057381,7.978077846182666,4.3948144706295346e+29
63.0,14.539660828475801,7.966587648131242,4.318578393882565e+29
64.0,14.538419074264507,7.955301813184043,4.244834430912657e+29
65.0,14.537202510765136,7.9442135811054655,4.17346405619185e+29
66.0,14.536010246911042,7.933316515333798,4.104356090486332e+29
76.0,14.525256486738657,7.833639211463723,3.5175188748354985e+29
86.0,14.516211968099173,7.747785304404394,3.0727206751473016e+29
96.0,14.508447472744182,7.672526775997307,2.7244294859168765e+29
106.0,14.501673238274789,7.6056349008654625,2.444612446537108e+29
116.0,14.495685205488343,7.5455085640029065,2.2150862238433415e+29
126.0,14.490334703859173,7.490960185285884,2.0235515011265236e+29
136.0,14.485510349372094,7.4410854608000765,1.8613974758105907e+29
146.0,14.481126719429499,7.395180475418401,1.7224194695903648e+29
156.0,14.477116987809984,7.3526869577531055,1.6020358231218676e+29
166.0,14.4734279755495,7.313154965625403,1.496791379618681e+29
176.0,14.470016730637639,7.276216756378059,1.4040323842818046e+29
186.0,14.466848106082102,7.241568056148468,1.3216876040756507e+29
196.0,14.46389300802385,7.208954355008045,1.2481173238065198e+29
206.0,14.461127104484842,7.178160696306909,1.1820069023567781e+29
216.0,14.45852985758581,7.1490039458683405,1.1222902890944298e+29
226.0,14.456083787260956,7.1213268537453835,1.0680941174181972e+29
236.0,14.453773903489385,7.094993433256279,1.0186962034590167e+29
246.0,14.451587263094847,7.069885322534679,9.734943044617136e+28
256.0,14.44951261991811,7.045898888858547,9.319822994369553e+28
266.0,14.447540145872471,7.022942901465145,8.93731816401418e+28
276.0,14.445661206438322,7.000936644381584,8.583779088455752e+28
286.0,14.443868178416018,6.9798083733729825,8.256077788284833e+28
296.0,14.44215430080604,6.959494044588585,7.951518177858695e+28
306.0,14.44051355189577,6.9399362596270215,7.667764286232096e+28
316.0,14.438940547253775,6.9210833844049855,7.40278229845623e+28
326.0,14.43743045453546,6.9028888086714755,7.154793414487842e+28
336.0,14.435978921905782,6.885310320146441,6.922235245205169e+28
346.0,14.434582017567463,6.868309572698852,6.703729997728019e+28
356.0,14.433236178404632,6.851851632157219,6.498058099055433e+28
366.0,14.43193816615362,6.83590458658338,6.304136205389796e+28
376.0,14.430685029824687,6.820439210369095,6.120998770807969e+28
386.0,14.429474073342648,6.805428673504533,5.94778252198808e+28
396.0,14.42830282756671,6.790848288943911,5.783713319059432e+28
406.0,14.427169026002558,6.776675292250422,5.628094986167915e+28
416.0,14.426070583641502,6.762888648710906,5.480299776270471e+28
426.0,14.425005578459427,6.749468883924699,5.33976019833922e+28
436.0,14.423972235187266,6.736397934531325,5.205961985558713e+28
446.0,14.422968911028978,6.7236590162806635,5.078438023237046e+28
456.0,14.421994083055306,6.711236507090751,4.95676308729304e+28
466.0,14.421046337044658,6.699115843102405,4.840549270057678e+28
476.0,14.420124357577755,6.687283426040869,4.729441991065403e+28
486.0,14.419226919222096,6.675726540445027,4.623116507534699e+28
496.0,14.41835287866654,6.664433279533455,4.521274853143061e+28
506.0,14.417501167686716,6.653392478651732,4.423643145110393e+28
516.0,14.416670786838957,6.642593655392465,4.32996920900519e+28
526.0,14.41586079979475,6.63202695560374,4.24002047846434e+28
536.0,14.415070328239848,6.62168310460698,4.153582133475881e+28
546.0,14.414298547272326,6.611553363034531,4.0704554462577185e+28
556.0,14.413544681242644,6.6016294867735645,3.990456308269252e+28
566.0,14.412807999986113,6.591903690568097,3.9134139156738237e+28
576.0,14.412087815404535,6.582368614886796,3.839169593754369e+28
586.0,14.411383478359205,6.573017295712408,3.767575743475449e+28
596.0,14.410694375842121,6.563843136950055,3.6984948956653143e+28
606.0,14.410019928396267,6.554839885187608,3.6317988602302747e+28
616.0,14.409359587759335,6.54600160657237,3.5673679594662436e+28
626.0,14.408712834708238,6.537322665595436,3.5050903359450785e+28
636.0,14.408079177084385,6.528797705598562,3.4448613266642245e+28
646.0,14.407458147981988,6.520421630839017,3.386582896188739e+28
656.0,14.406849304083627,6.512189589965859,3.330163122411195e+28
666.0,14.406252224129076,6.504096960776909,3.2755157293290726e+28
676.0,14.405666507504872,6.496139336139509,3.2225596619093123e+28
686.0,14.40509177294348,6.488312510970452,3.171218698690976e+28
696.0,14.404527657322086,6.480612470181239,3.121421098282374e+28
706.0,14.40397381455205,6.473035377504274,3.0730992763493526e+28
716.0,14.403429914551017,6.465577565124221,3.0261895100758814e+28
726.0,14.402895642290472,6.458235524046051,2.9806316674144247e+28
736.0,14.402370696912225,6.4510058951381595,2.9363689587383673e+28
746.0,14.401854790907995,6.443885460794679,2.893347708767658e+28
756.0,14.401347649356802,6.436871137166584,2.851517146866611e+28
766.0,14.400849009215372,6.429959966915762,2.810829214013529e+28
776.0,14.400358618657252,6.423149112450549,2.7712383849190686e+28
786.0,14.399876236456693,6.416435849604973,2.7327015039269937e+28
796.0,14.399401631413745,6.409817561727348,2.69517763346982e+28
806.0,14.398934581817333,6.403291734146952,2.658627913975028e+28
816.0,14.398474874943357,6.396855948990218,2.6230154342270198e+28
826.0,14.398022306585144,6.390507880320376,2.58830511128738e+28
836.0,14.397576680613785,6.384245289576716,2.5544635791628708e+28
846.0,14.397137808566145,6.378066021291687,2.521459085488079e+28
856.0,14.396705509258473,6.371967999065767,2.4892613955589047e+28
866.0,14.396279608423766,6.365949221781843,2.4578417031150957e+28
876.0,14.395859938371164,6.360007760042263,2.427172547325606e+28
886.0,14.395446337665776,6.354141752813003,2.3972277354804113e+28
896.0,14.395038650827551,6.348349404260828,2.36798227093725e+28
906.0,14.3946367280478,6.342628980770245,2.3394122859120515e+28
916.0,14.394240424922202,6.336978808128205,2.311494978738157e+28
926.0,14.393849602199133,6.331397268865398,2.284208555252161e+28
936.0,14.393464125542303,6.325882799743825,2.2575321739937957e+28
946.0,14.393083865306739,6.3204338893811585,2.231445894933998e+28
956.0,14.392708696327222,6.315049076003042,2.2059306314694967e+28
966.0,14.392338497718377,6.309726945315225,2.1809681054441646e+28
976.0,14.39197315268565,6.304466128487942,2.156540804977253e+28
986.0,14.391612548346481,6.299265300245546,2.132631944896666e+28
996.0,14.391256575561027,6.294123177054889,2.1092254295918376e+28
1006.0,14.390905387881858,6.289038607480771,2.080238534050367e+28
1016.0,14.390560048940857,6.284010799967458,2.047970320826778e+28
1026.0,14.390220505439814,6.279038600893934,2.0165113907848677e+28
1036.0,14.389886604493437,6.2741208555762125,1.985833853020707e+28
1046.0,14.389558198684233,6.269256444274381,1.9559110345853038e+28
1056.0,14.389235145816698,6.264444280809903,1.9267174162990732e+28
1066.0,14.38891730868478,6.259683311250271,1.8982285725176503e+28
1076.0,14.388604554851764,6.254972512657082,1.8704211145714307e+28
1086.0,14.388296756441825,6.250310891893948,1.8432726376230965e+28
1096.0,14.387993789942518,6.245697484490824,1.8167616707073525e+28
1106.0,14.387695536017535,6.241131353561629,1.7908676297353471e+28
1116.0,14.387401879329113,6.236611588772176,1.7655707732629234e+28
1126.0,14.387112708369521,6.232137305355629,1.7408521608371218e+28
1136.0,14.386827915301065,6.227707643172929,1.7166936137493276e+28
1146.0,14.38654739580413,6.223321765815735,1.6930776780362817e+28
1156.0,14.386271048932773,6.2189788597496065,1.6699875895819163e+28
1166.0,14.385998776977456,6.214678133495271,1.647407241183789e+28
1176.0,14.385730485334463,6.210418816846012,1.6253211514577818e+28
1186.0,14.38546608238167,6.206200160119245,1.6037144354638651e+28
1196.0,14.385205479360279,6.202021433440542,1.58257277694411e+28
1206.0,14.384948590262182,6.197881926058429,1.5618824020718504e+28
1216.0,14.384695331722666,6.193780945688371,1.5416300546180216e+28
1226.0,14.38444562291814,6.189717817884505,1.5218029724472542e+28
1236.0,14.384199385468616,6.185691885437707,1.5023888652623675e+28
1246.0,14.383956543344695,6.181702507798686,1.4833758935214826e+28
1256.0,14.383717022778807,6.177749060524873,1.4647526484571544e+28
1266.0,14.38348075218048,6.173830934749946,1.4465081331316832e+28
1276.0,14.38324766205543,6.169947536674904,1.4286317444671937e+28
1286.0,14.383017684928257,6.166098287079615,1.4111132561931504e+28
1296.0,14.382790755268585,6.16228262085389,1.3939428026577673e+28
1306.0,14.382566809420435,6.158499986547177,1.377110863453287e+28
1316.0,14.382345785534696,6.1547498459359335,1.3606082488083443e+28
1326.0,14.382127623504513,6.15103167360793,1.3444260857036612e+28
1336.0,14.381912264903459,6.1473449565626375,1.3285558046701256e+28
1346.0,14.381699652926347,6.143689193827003,1.3129891272308992e+28
1356.0,14.381489732332549,6.140063896085888,1.297718053951633e+28
1366.0,14.381282449391692,6.136468585326501,1.2827348530651153e+28
1376.0,14.381077751831638,6.132902794496225,1.268032049638773e+28
1386.0,14.380875588788602,6.12936606717321,1.2536024152554e+28
1396.0,14.380675910759336,6.125857957249183,1.2394389581792988e+28
1406.0,14.380478669555266,6.122378028623922,1.2255349139817228e+28
1416.0,14.380283818258475,6.118925854910916,1.2118837366010765e+28
1426.0,14.380091311179479,6.115501019153681,1.198479089814816e+28
1436.0,14.379901103816682,6.112103113552324,1.1853148391013531e+28
1446.0,14.379713152817441,6.108731739199863,1.172385043871566e+28
1456.0,14.37952741594067,6.10538650582793,1.1596839500507073e+28
1466.0,14.379343852020908,6.102067031561454,1.147205982992629e+28
1476.0,14.379162420933785,6.098772942681924,1.13494574070929e+28
1486.0,14.378983083562826,6.095503873398915,1.1228979873994956e+28
1496.0,14.378805801767525,6.09225946562948,1.1110576472617342e+28
1506.0,14.378630538352638,6.089039368785157,1.09941979857684e+28
1516.0,14.378457257038638,6.085843239566204,1.0879796680470157e+28
1526.0,14.378285922433287,6.082670741762838,1.0767326253785032e+28
1536.0,14.378116500004266,6.079521546063145,1.0656741780959038e+28
1546.0,14.377948956052823,6.076395329867426,1.0547999665768057e+28
1556.0,14.37778325768839,6.0732917771086985,1.0441057592960117e+28
1566.0,14.377619372804144,6.070210578079141,1.0335874482692366e+28
1576.0,14.377457270053439,6.0671514292622195,1.0232410446866979e+28
1586.0,14.377296918827103,6.0641140331702825,1.0130626747275404e+28
1596.0,14.377138289231553,6.061098098187431,1.003048575546525e+28
1606.0,14.376981352067688,6.058103338417421,9.931950914248564e+27
1616.0,14.37682607881053,6.055129473536466,9.834986700774765e+27
1626.0,14.376672441589596,6.052176228650678,9.7395585910953e+27
1636.0,14.376520413169937,6.049243334158042,9.64563302615111e+27
1646.0,14.376369966933858,6.046330525614712,9.553177379117452e+27
1656.0,14.376221076863267,6.043437543605478,9.462159924044078e+27
1666.0,14.376073717522626,6.040564133618256,9.372549805731906e+27
1676.0,14.375927864042493,6.037710045922438,9.284317010790384e+27
1686.0,14.375783492103618,6.0348750354509875,9.197432339822534e+27
1696.0,14.375640577921585,6.032058861686101,9.111867380687356e+27
1706.0,14.37549909823196,6.029261288548357,9.027594482791838e+27
1716.0,14.375359030275954,6.026482084289189,8.9445867323671e+27
1726.0,14.375220351786533,6.023721021386569,8.862817928685596e+27
1736.0,14.375083040975023,6.020977876443823,8.782262561178295e+27
1746.0,14.374947076518128,6.018252430091405,8.702895787412863e+27
1756.0,14.374812437545383,6.015544466891585,8.624693411895728e+27
1766.0,14.374679103627019,6.0128537752459135,8.547631865662721e+27
1776.0,14.374547054762203,6.010180147305382,8.471688186624687e+27
1786.0,14.374416271367684,6.007523378883169,8.396840000636091e+27
1796.0,14.374286734266772,6.004883269369923,8.323065503256128e+27
1806.0,14.374158424678686,6.002259621651426,8.250343442173336e+27
1816.0,14.374031324208236,5.999652242028642,8.17865310026605e+27
1826.0,14.37390541483582,5.997060940139988,8.107974279272351e+27
1836.0,14.373780678907744,5.994485528885821,8.038287284044374e+27
1846.0,14.373657099126843,5.9919258243550235,7.96957290736302e+27
1856.0,14.373534658543383,5.9893816457536175,7.901812415290236e+27
1866.0,14.373413340546245,5.986852815335389,7.834987533037026e+27
1876.0,14.37329312885439,5.984339158334381,7.769080431326421e+27
1886.0,14.37317400750857,5.981840502899264,7.704073713231512e+27
1896.0,14.373055960863296,5.979356680029483,7.639950401469611e+27
1906.0,14.372938973579046,5.976887523513124,7.576693926134409e+27
1916.0,14.37282303061471,5.974432869866481,7.514288112848826e+27
1926.0,14.37270811722025,5.971992558275204,7.452717171322038e+27
1936.0,14.3725942189296,5.969566430537046,7.391965684294853e+27
1946.0,14.372481321553737,5.967154331006132,7.332018596858367e+27
1956.0,14.372369411174002,5.964756106538658,7.272861206131409e+27
1966.0,14.372258474135577,5.9623716064400725,7.214479151283005e+27
1976.0,14.372148497041174,5.960000682413586,7.156858403886614e+27
1986.0,14.372039466744889,5.957643188510048,7.099985258593509e+27
1996.0,14.371931370346257,5.955298981079112,7.043846324113192e+27
2006.0,14.37182419518445,5.952967918721658,6.988428514489258e+27
2016.0,14.37171792883266,5.950649862243429,6.933719040659615e+27
2026.0,14.371612559092632,5.948344674609846,6.879705402290438e+27
2036.0,14.371508073989348,5.946052220901972,6.826375379873673e+27
2046.0,14.37140446176587,5.943772368273601,6.773717027078361e+27
2056.0,14.37130171087832,5.941504985909392,6.721718663346397e+27
2066.0,14.371199809991001,5.939249944984066,6.670368866723815e+27
2076.0,14.371098747971653,5.937007118622633,6.619656466918973e+27
2086.0,14.370998513886837,5.934776381861564,6.56957053857943e+27
2096.0,14.370899096997451,5.932557611610955,6.520100394779596e+27
2106.0,14.37080048675436,5.9303506866175955,6.471235580711595e+27
2116.0,14.370702672794154,5.928155487428953,6.422965867572066e+27
2126.0,14.370605644935011,5.925971896358007,6.375281246637913e+27
2136.0,14.37050939317268,5.923799797448966,6.328171923524333e+27
2146.0,14.37041390767656,5.921639076443778,6.281628312618668e+27
2156.0,14.3703191787859,5.919489620749459,6.235641031683915e+27
2166.0,14.37022519700608,5.917351319406189,6.190200896625976e+27
2176.0,14.370131953005007,5.915224063056183,6.145298916418929e+27
2186.0,14.370039437609593,5.913107743913262,6.100926288182867e+27
2196.0,14.369947641802332,5.91100225573318,6.057074392409042e+27
2206.0,14.369856556717968,5.908907493784611,6.013734788327242e+27
2216.0,14.369766173640238,5.906823354820828,5.970899209410571e+27
2226.0,14.369676483998717,5.9047497370520325,5.92855955901293e+27
2236.0,14.36958747936572,5.902686540118328,5.886707906134728e+27
2246.0,14.369499151453306,5.900633665063303,5.845336481312483e+27
2256.0,14.369411492110347,5.898591014308225,5.804437672628175e+27
2266.0,14.369324493319668,5.896558491626823,5.764004021834329e+27
2276.0,14.369238147195272,5.894536002120642,5.724028220590995e+27
2286.0,14.36915244597962,5.89252345219494,5.684503106810909e+27
2296.0,14.369067382040981,5.890520749535147,5.645421661109278e+27
2306.0,14.368982947870867,5.888527803083829,5.606777003354735e+27
2316.0,14.3688991360815,5.886544523018182,5.568562389318185e+27
2326.0,14.368815939403369,5.884570820728017,5.530771207416329e+27
2336.0,14.368733350682831,5.88260660879423,5.493396975546813e+27
2346.0,14.36865136287978,5.880651800967744,5.456433338012039e+27
2356.0,14.368569969065359,5.878706312148919,5.419874062528792e+27
2366.0,14.368489162419749,5.876770058367404,5.383713037320936e+27
2376.0,14.368408936229994,5.874842956762421,5.347944268292523e+27
2386.0,14.368329283887878,5.872924925563497,5.312561876278791e+27
2396.0,14.368250198887864,5.8710158840715785,5.277560094372544e+27
2406.0,14.368171674825078,5.869115752640569,5.242933265323592e+27
2416.0,14.368093705393333,5.867224452659276,5.208675839008921e+27
2426.0,14.368016284383211,5.865341906533697,5.174782369971414e+27
2436.0,14.367939405680183,5.863468037669728,5.141247515024973e+27
2446.0,14.367863063262773,5.8616027704562,5.108066030923993e+27
2456.0,14.36778725120077,5.859746030248301,5.075232772095216e+27
2466.0,14.367711963653479,5.857897743351316,5.042742688430023e+27
2476.0,14.367637194868006,5.85605783700473,5.010590823135349e+27
2486.0,14.367562939177597,5.854226239366641,4.978772310641401e+27
2496.0,14.367489190999999,5.8524028794985075,4.9472823745644894e+27
2506.0,14.36741594483587,5.850587687350208,4.916116325723273e+27
2516.0,14.367343195267217,5.848780593745396,4.88526956020685e+27
2526.0,14.367270936955883,5.846981530367168,4.8547375574931044e+27
2536.0,14.36719916464205,5.8451904297440205,4.8245158786158183e+27
2546.0,14.367127873142786,5.843407225236071,4.794600164379124e+27
2556.0,14.367057057350628,5.841631851021585,4.764986133617852e+27
2566.0,14.366986712232185,5.839864242083761,4.735669581502454e+27
2576.0,14.366916832826785,5.8381043341977765,4.706646377887174e+27
2586.0,14.366847414245141,5.83635206391809,4.677912465700207e+27
2596.0,14.366778451668058,5.834607368566012,4.6494638593746184e+27
2606.0,14.366709940345151,5.832870186217496,4.6212966433188403e+27
2616.0,14.366641875593613,5.831140455691196,4.5934069704256056e+27
2626.0,14.366574252796992,5.829418116536738,4.56579106061819e+27
2636.0,14.366507067404005,5.827703109023231,4.5384451994329284e+27
2646.0,14.36644031492737,5.825995374128004,4.5113657366369186e+27
2656.0,14.366373990942671,5.824294853525542,4.484549084879961e+27
2666.0,14.366308091087243,5.822601489576671,4.457991718379715e+27
2676.0,14.366242611059077,5.820915225317911,4.431690171639168e+27
