Time,Mass,Radius,Lx
23.0,6.728688454232868,8.74,1.1600000000000076e+30
23.1,6.727424610524439,8.734507353091042,1.154660410481529e+30
23.200000000000003,6.726168554954525,8.729044257316179,1.149368305985163e+30
23.300000000000004,6.724920205492017,8.723610426603202,1.144123062267769e+30
23.400000000000006,6.7236794813210174,8.71820557885898,1.1389240659248484e+30
23.500000000000007,6.722446302817707,8.712829435897474,1.1337707141570427e+30
23.60000000000001,6.721220591527747,8.70748172336936,1.128662414542625e+30
23.70000000000001,6.720002270144209,8.702162170693207,1.1235985848158149e+30
23.80000000000001,6.718791262486002,8.696870510988166,1.1185786526507383e+30
23.900000000000013,6.717587493476805,8.69160648100815,1.1136020554508694e+30
24.000000000000014,6.716390889124474,8.686369821077436,1.1086682401437893e+30
24.100000000000016,6.715201376500921,8.681160275027688,1.10377666298111e+30
24.200000000000017,6.714018883722441,8.675977590136327,1.0989267893434096e+30
24.30000000000002,6.712843339930496,8.670821517066246,1.0941180935500337e+30
24.40000000000002,6.7116746752729135,8.665691809806804,1.0893500586736234e+30
24.50000000000002,6.710512820885521,8.660588225616115,1.0846221763592339e+30
24.600000000000023,6.709357708874179,8.655510524964528,1.079933946647908e+30
24.700000000000024,6.708209272297214,8.650458471479348,1.0752848778045835e+30
24.800000000000026,6.707067445148247,8.645431831890683,1.070674486150206e+30
24.900000000000027,6.705932162339387,8.640430375978477,1.0661022958979276e+30
25.00000000000003,6.7048033596848065,8.635453876520621,1.0615678389932818e+30
25.10000000000003,6.703680973884663,8.63050210924217,1.0570706549582161e+30
25.20000000000003,6.702564942509379,8.625574852765604,1.052610290738877e+30
25.300000000000033,6.701455203984257,8.620671888562123,1.0481863005570442e+30
25.400000000000034,6.700351697574431,8.615793000903967,1.0437982457651092e+30
25.500000000000036,6.699254363370133,8.610937976817679,1.0394456947045022e+30
25.600000000000037,6.698163142272286,8.606106606038363,1.0351282225674734e+30
25.70000000000004,6.697077975978393,8.601298680964867,1.0308454112621315e+30
25.80000000000004,6.695998806968735,8.596513996615858,1.0265968492806586e+30
25.90000000000004,6.694925578492851,8.59175235058681,1.0223821315706043e+30
26.000000000000043,6.6938582345563145,8.587013543007853,1.0182008594091853e+30
26.100000000000044,6.692796719907776,8.58229737650247,1.0140526402805035e+30
26.200000000000045,6.691740980026283,8.577603656147014,1.009937087755604e+30
26.300000000000047,6.690690961108864,8.572932189431047,1.0058538213753003e+30
26.40000000000005,6.689646610058366,8.568282786218452,1.0018024665356893e+30
26.50000000000005,6.688607874471549,8.563655258709334,9.977826543762842e+29
26.60000000000005,6.687574702627418,8.559049421402653,9.937940216707e+29
26.700000000000053,6.686547043475804,8.554465091059607,9.898362107198186e+29
26.800000000000054,6.68552484662617,8.549902086667716,9.859088692473721e+29
26.900000000000055,6.684508062336647,8.545360229405636,9.82011650297879e+29
27.000000000000057,6.683496641503295,8.540839342608619,9.78144212136872e+29
27.10000000000006,6.682490535649579,8.536339251734672,9.743062181533589e+29
27.20000000000006,6.681489696916059,8.53185978433135,9.704973367644561e+29
27.30000000000006,6.68049407805028,8.527400770003219,9.667172413221412e+29
27.400000000000063,6.679503632396875,8.522962040379882,9.629656100220684e+29
27.500000000000064,6.678518313887853,8.518543429084687,9.592421258143938e+29
27.600000000000065,6.677538077033091,8.51414477170398,9.555464763165605e+29
27.700000000000067,6.676562876911006,8.509765905756963,9.518783537279917e+29
27.800000000000068,6.675592669159412,8.505406670666103,9.482374547466451e+29
27.90000000000007,6.674627409966562,8.501066907728136,9.44623480487379e+29
28.00000000000007,6.673667056062357,8.496746460085555,9.410361364020887e+29
28.100000000000072,6.672711564709732,8.492445172698703,9.374751322015626e+29
28.200000000000074,6.671760893696207,8.488162892318314,9.339401817790219e+29
28.300000000000075,6.670815001325601,8.483899467458617,9.304310031352953e+29
28.400000000000077,6.66987384640991,8.479654748370903,9.269473183055922e+29
28.500000000000078,6.668937388261334,8.47542858701761,9.234888532878352e+29
28.60000000000008,6.668005586684461,8.471220837046857,9.200553379725088e+29
28.70000000000008,6.667078401968602,8.467031353767453,9.166465060739927e+29
28.800000000000082,6.6661557948802646,8.462859994124365,9.132620950633389e+29
28.900000000000084,6.6652377266557785,8.458706616674629,9.099018461024603e+29
29.000000000000085,6.664324158994051,8.454571081563705,9.065655039796938e+29
29.100000000000087,6.663415054049468,8.450453250502239,9.032528170467074e+29
29.200000000000088,6.662510374424917,8.446352986743259,8.999635371567162e+29
29.30000000000009,6.661610083164953,8.442270155059786,8.966974196039777e+29
29.40000000000009,6.6607141437490816,8.438204621722821,8.934542230645329e+29
29.500000000000092,6.659822520085171,8.434156254479753,8.902337095381689e+29
29.600000000000094,6.658935176502986,8.430124922533114,8.870356442915659e+29
29.700000000000095,6.658052077747841,8.426110496519755,8.838597958026086e+29
29.800000000000097,6.657173188974367,8.422112848490348,8.807059357058277e+29
29.900000000000098,6.656298475740398,8.418131851889271,8.775738387389497e+29
30.0000000000001,6.655427904000962,8.414167381534837,8.744632826905256e+29
30.1000000000001,6.654561440102387,8.410219313599871,8.713740483486154e+29
30.200000000000102,6.653699050776513,8.406287525592626,8.683059194505016e+29
30.300000000000104,6.652840703135006,8.402371896338025,8.652586826334108e+29
30.400000000000105,6.651986364663775,8.39847230595923,8.622321273862156e+29
30.500000000000107,6.65113600321749,8.394588635859524,8.592260460020991e+29
30.600000000000108,6.650289587014203,8.39072076870452,8.562402335321553e+29
30.70000000000011,6.649447084630052,8.38686858840465,8.532744877399069e+29
30.80000000000011,6.64860846499407,8.383031980097972,8.503286090567183e+29
30.900000000000112,6.647773697383088,8.37921083013326,8.474024005380825e+29
31.000000000000114,6.646942751416716,8.37540502605338,8.444956678207645e+29
31.100000000000115,6.646115597052422,8.371614456578966,8.41608219080779e+29
31.200000000000117,6.645292204580695,8.367839011592322,8.387398649921848e+29
31.300000000000118,6.644472544620293,8.364078582121666,8.358904186866782e+29
31.40000000000012,6.64365658811357,8.360333060325566,8.330596957139649e+29
31.50000000000012,6.642844306321892,8.35660233947769,8.302475140028964e+29
31.600000000000122,6.6420356708211195,8.352886313951768,8.27453693823352e+29
31.700000000000124,6.641230653497187,8.349184879206847,8.246780577488472e+29
31.800000000000125,6.640429226541738,8.345497931772737,8.219204306198594e+29
31.900000000000126,6.639631362447851,8.341825369235751,8.191806395078461e+29
32.00000000000013,6.638837034005826,8.338167090224635,8.164585136799481e+29
32.10000000000013,6.638046214299057,8.334522994396755,8.137538845643577e+29
32.20000000000013,6.637258876699957,8.330892982424498,8.110665857163398e+29
32.30000000000013,6.636474994865972,8.327276955981898,8.083964527848901e+29
32.400000000000134,6.635694542735641,8.32367481773147,8.057433234800176e+29
32.500000000000135,6.634917494524744,8.320086471311285,8.031070375406377e+29
32.600000000000136,6.634143824722496,8.316511821322207,8.004874367030619e+29
32.70000000000014,6.633373508087817,8.312950773315382,7.978843646700717e+29
32.80000000000014,6.632606519645656,8.309403233779891,7.952976670805652e+29
32.90000000000014,6.631842834683385,8.305869110130628,7.927271914797612e+29
33.00000000000014,6.631082428747243,8.302348310696345,7.901727872899527e+29
33.10000000000014,6.630325277638847,8.298840744707915,7.876343057817946e+29
33.200000000000145,6.629571357411756,8.295346322286761,7.851116000461163e+29
33.300000000000146,6.62882064436809,8.29186495443346,7.826045249662483e+29
33.40000000000015,6.628073115055212,8.288396553016561,7.801129371908493e+29
33.50000000000015,6.627328746262455,8.284941030761532,7.776366951072267e+29
33.60000000000015,6.626587515017907,8.281498301239932,7.751756588151383e+29
33.70000000000015,6.625849398585251,8.278068278858699,7.727296901010638e+29
33.80000000000015,6.6251143744606455,8.27465087884964,7.702986524129404e+29
33.900000000000155,6.624382420369671,8.271246017259068,7.678824108353479e+29
34.000000000000156,6.623653514264312,8.267853610937625,7.654808320651373e+29
34.10000000000016,6.622927634319994,8.264473577530207,7.630937843874933e+29
34.20000000000016,6.622204758932665,8.261105835466106,7.607211376524195e+29
34.30000000000016,6.62148486671593,8.257750303949269,7.583627632516413e+29
34.40000000000016,6.620767936498219,8.254406902948697,7.560185340959141e+29
34.50000000000016,6.620053947320014,8.251075553189022,7.536883245927313e+29
34.600000000000165,6.619342878431107,8.247756176141214,7.513720106244226e+29
34.700000000000166,6.618634709287912,8.2444486940134,7.490694695266347e+29
34.80000000000017,6.617929419550811,8.241153029741877,7.467805800671879e+29
34.90000000000017,6.617226989081547,8.237869106982206,7.445052224252985e+29
35.00000000000017,6.616527397940654,8.234596850100479,7.422432781711628e+29
35.10000000000017,6.615830626384932,8.231336184164695,7.399946302458923e+29
35.20000000000017,6.615136654864953,8.228087034936266,7.377591629417952e+29
35.300000000000175,6.614445464022615,8.22484932886167,7.355367618829965e+29
35.400000000000176,6.613757034688727,8.2216229930642,7.3332731400639e+29
35.50000000000018,6.613071347880637,8.218407955335843,7.31130707542916e+29
35.60000000000018,6.612388384799887,8.215204144129302,7.289468319991566e+29
35.70000000000018,6.611708126829918,8.212011488550107,7.267755781392451e+29
35.80000000000018,6.611030555533795,8.208829918348842,7.246168379670809e+29
35.90000000000018,6.610355652651978,8.205659363913512,7.224705047088449e+29
36.000000000000185,6.609683400100121,8.202499756261997,7.203364727958095e+29
36.100000000000186,6.609013779966905,8.199351027034618,7.182146378474373e+29
36.20000000000019,6.60834677451191,8.19621310848684,7.161048966547626e+29
36.30000000000019,6.607682366163505,8.19308593348202,7.140071471640506e+29
36.40000000000019,6.607020537516788,8.189969435484336,7.119212884607292e+29
36.50000000000019,6.60636127133154,8.186863548551756,7.098472207535872e+29
36.60000000000019,6.605704550530221,8.183768207329132,7.077848453592343e+29
36.700000000000195,6.605050358195989,8.180683347041402,7.057340646868178e+29
36.800000000000196,6.604398677570755,8.17760890348687,7.036947822229916e+29
36.9000000000002,6.603749492053259,8.174544813030593,7.016669025171317e+29
37.0000000000002,6.603102785197183,8.171491012597864,6.996503311667939e+29
37.1000000000002,6.602458540709281,8.16844743966778,6.976449748034093e+29
37.2000000000002,6.601816742447551,8.165414032266897,6.956507410782132e+29
37.3000000000002,6.601177374419417,8.162390728962995,6.936675386484023e+29
37.400000000000205,6.600540420779953,8.1593774688589,6.916952771635167e+29
37.500000000000206,6.599905865830123,8.15637419158643,6.897338672520414e+29
37.60000000000021,6.59927369401505,8.153380837300386,6.877832205082248e+29
37.70000000000021,6.59864388992231,8.150397346672655,6.858432494791084e+29
37.80000000000021,6.5980164382802515,8.147423660886385,6.839138676517649e+29
37.90000000000021,6.597391323956336,8.144459721630245,6.819949894407404e+29
38.00000000000021,6.596768531955507,8.14150547109275,6.80086530175697e+29
38.100000000000215,6.596148047418578,8.13856085195668,6.781884060892521e+29
38.200000000000216,6.595529855620647,8.135625807393588,6.7630053430501e+29
38.30000000000022,6.594913941969533,8.132700281058339,6.744228328257843e+29
38.40000000000022,6.594300292004229,8.129784217083767,6.725552205220053e+29
38.50000000000022,6.593688891393391,8.126877560075389,6.706976171203099e+29
38.60000000000022,6.593079725933832,8.123980255106185,6.688499431923115e+29
38.70000000000022,6.592472781549044,8.12109224771146,6.670121201435446e+29
38.800000000000225,6.591868044287748,8.11821348388377,6.651840702025838e+29
38.900000000000226,6.591265500322454,8.115343910067912,6.633657164103308e+29
39.00000000000023,6.590665135948043,8.112483473155999,6.615569826094685e+29
39.10000000000023,6.590066937580374,8.109632120482575,6.597577934340802e+29
39.20000000000023,6.5894708917549085,8.106789799819817,6.579680742994254e+29
39.30000000000023,6.5888769851253475,8.103956459372789,6.561877513918783e+29
39.40000000000023,6.588285204462299,8.10113204777477,6.544167516590174e+29
39.500000000000234,6.587695536651952,8.098316514082638,6.526550027998685e+29
39.600000000000236,6.587107968694783,8.09550980777231,6.509024332552974e+29
39.70000000000024,6.58652248770426,8.092711878734248,6.491589721985491e+29
39.80000000000024,6.585939080905588,8.089922677269026,6.474245495259306e+29
39.90000000000024,6.585357735634451,8.08714215408296,6.456990958476362e+29
40.00000000000024,6.584778439335788,8.084370260283778,6.43982542478711e+29
40.10000000000024,6.5842011795625695,8.081606947376363,6.422748214301511e+29
40.200000000000244,6.583625943974606,8.07885216725855,6.405758654001395e+29
40.300000000000246,6.58305272033736,8.076105872216964,6.388856077654112e+29
40.40000000000025,6.582481496520785,8.073368014922933,6.372039825727504e+29
40.50000000000025,6.581912260498171,8.07063854842844,6.355309245306138e+29
40.60000000000025,6.581345000345009,8.067917426162122,6.338663690008784e+29
40.70000000000025,6.580779704237877,8.065204601925354,6.3221025199071386e+29
40.80000000000025,6.580216360453326,8.062500029888323,6.3056251014457465e+29
40.900000000000254,6.579654957366798,8.059803664586221,6.289230807363102e+29
41.000000000000256,6.579095483451545,8.057115460915437,6.272919016613939e+29
41.10000000000026,6.578537927277572,8.054435374129817,6.256689114292639e+29
41.20000000000026,6.577982277510586,8.051763359836977,6.240540491557792e+29
41.30000000000026,6.577428522910964,8.049099373994647,6.224472545557848e+29
41.40000000000026,6.576876652332735,8.046443372907074,6.208484679357866e+29
41.50000000000026,6.576326654722572,8.043795313221462,6.192576301867329e+29
41.600000000000264,6.575778519118799,8.041155151924475,6.176746827769011e+29
41.700000000000266,6.575232234650412,8.038522846338752,6.160995677448886e+29
41.80000000000027,6.574687790536109,8.0358983541195,6.145322276927037e+29
41.90000000000027,6.5741451760833405,8.033281633251104,6.1297260577895826e+29
42.00000000000027,6.573604380687363,8.0306726420438,6.114206457121579e+29
42.10000000000027,6.573065393830309,8.028071339130364,6.098762917440884e+29
42.20000000000027,6.572528205080274,8.025477683462872,6.083394886632975e+29
42.300000000000274,6.571992804090403,8.022891634309483,6.068101817886708e+29
42.400000000000276,6.571459180598003,8.020313151251257,6.0528831696309806e+29
42.50000000000028,6.570927324423656,8.017742194179025,6.037738405472311e+29
42.60000000000028,6.570397225470349,8.015178723290294,6.022666994133304e+29
42.70000000000028,6.569868873722613,8.01262269908619,6.007668409391977e+29
42.80000000000028,6.569342259245675,8.01007408236843,5.992742130021972e+29
42.90000000000028,6.568817372184618,8.007532834236349,5.977887639733583e+29
43.000000000000284,6.568294202763553,8.004998916083938,5.963104427115635e+29
43.100000000000286,6.567772741284803,8.00247228959695,5.948391985578174e+29
43.20000000000029,6.567252978128094,7.999952916750011,5.933749813295964e+29
43.30000000000029,6.566734903749759,7.997440759803787,5.919177413152767e+29
43.40000000000029,6.566218508681953,7.994935781302173,5.904674292686414e+29
43.50000000000029,6.565703783531872,7.99243794406952,5.890239964034627e+29
43.60000000000029,6.565190718980991,7.989947211207902,5.8758739438816106e+29
43.700000000000294,6.5646793057843,7.9874635460944035,5.861575753405373e+29
43.800000000000296,6.5641695347695626,7.984986912378446,5.8473449182257764e+29
43.9000000000003,6.563661396836572,7.982517273979154,5.8331809683533145e+29
44.0000000000003,6.5631548829564235,7.980054595082734,5.819083438138582e+29
44.1000000000003,6.562649984170793,7.977598840139905,5.805051866222454e+29
44.2000000000003,6.562146691591226,7.975149973863342,5.7910857954869324e+29
44.3000000000003,6.561644996398435,7.972707961225167,5.777184773006682e+29
44.400000000000304,6.561144889841604,7.970272767454448,5.763348350001213e+29
44.500000000000306,6.560646363237702,7.967844358034757,5.7495760817877276e+29
44.60000000000031,6.56014940797081,7.965422698701728,5.735867527734597e+29
44.70000000000031,6.5596540154914456,7.963007755440653,5.722222251215478e+29
44.80000000000031,6.559160177315906,7.960599494484123,5.708639819564048e+29
44.90000000000031,6.558667885025616,7.958197882309674,5.695119804029342e+29
45.00000000000031,6.55817713026648,7.955802885637464,5.6816617797317136e+29
45.100000000000314,6.557687904748246,7.953414471427996,5.66826532561936e+29
45.200000000000315,6.5572002002438765,7.951032606879835,5.654930024425452e+29
45.30000000000032,6.556714008588926,7.948657259427389,5.6416554626258294e+29
45.40000000000032,6.556229321680929,7.9462883967386855,5.62844123039726e+29
45.50000000000032,6.555746131478789,7.9439259867131895,5.615286921576258e+29
45.60000000000032,6.555264430002181,7.941569997479643,5.6021921336184476e+29
45.70000000000032,6.5547842093309585,7.939220397393919,5.5891564675584666e+29
45.800000000000324,6.55430546160457,7.936877155036928,5.576179527970405e+29
46.800000000000324,6.54959730844135,7.913787651106842,5.4495555484059524e+29
47.800000000000324,6.545028224213439,7.891300952459394,5.3283940883895564e+29
48.800000000000324,6.54059124710371,7.86938904704172,5.212352459670403e+29
49.800000000000324,6.536279899293577,7.848025767247508,5.101115917733395e+29
50.800000000000324,6.532088144315043,7.827186634262109,4.994394878298231e+29
51.800000000000324,6.5280103489206684,7.80684871831359,4.8919224594375535e+29
52.800000000000324,6.524041248915549,7.786990512932329,4.793452305780482e+29
53.800000000000324,6.520175918472971,7.767591821579314,4.698756657788655e+29
54.800000000000324,6.516409742520854,7.7486336552217825,4.6076246345348294e+29
55.800000000000324,6.512738391841664,7.730098139620898,4.51986070297353e+29
56.800000000000324,6.509157800575609,7.7119684312548795,4.435283310525459e+29
57.800000000000324,6.505664145857246,7.694228640937027,4.353723661029119e+29
58.800000000000324,6.502253829349969,7.676863764304825,4.275024616846889e+29
59.800000000000324,6.498923460472465,7.659859618456878,4.199039712232528e+29
60.800000000000324,6.495669841136543,7.64320278410127,4.1256322650411796e+29
61.800000000000324,6.492489951837692,7.626880552654056,4.054674575547664e+29
62.800000000000324,6.489380938958644,7.61088087779186,3.986047202580575e+29
63.800000000000324,6.4863401031626235,7.595192331019284,3.9196383084167016e+29
64.80000000000032,6.483364888767246,7.57980406086126,3.8553430649443696e+29
65.80000000000032,6.480452874002421,7.564705755333771,3.7930631145218796e+29
66.80000000000032,6.477601762066468,7.549887607384161,3.732706079750363e+29
67.80000000000032,6.47480937290413,7.535340283025526,3.674185117067549e+29
68.80000000000032,6.472073635638482,7.521054891918853,3.6174185096656016e+29
69.80000000000032,6.469392581596005,7.5070229601823435,3.5623292957554704e+29
70.80000000000032,6.466764337870559,7.493236405230061,3.5088449286529364e+29
71.80000000000032,6.464187121377612,7.47968751246219,3.456896965557277e+29
72.80000000000032,6.461659233355104,7.466368913646894,3.406420782239849e+29
73.80000000000032,6.459179054271737,7.453273566849697,3.357355311163821e+29
74.80000000000032,6.456745039107422,7.440394737780281,3.309642800823379e+29
75.80000000000032,6.454355712974079,7.427725982439114,3.2632285943258956e+29
76.80000000000032,6.4520096670481015,7.415261130957518,3.2180609254479976e+29
77.80000000000032,6.449705554788538,7.402994272534752,3.17409073057973e+29
78.80000000000032,6.447442088417524,7.390919741384549,3.1312714751332247e+29
