Time,Mass,Radius,Lx
23.0,5.596940043010154,6.41,
23.100002009282885,5.590496276703565,6.380800010363947,
23.20000401856577,5.584148019904488,6.351849528706495,
23.300006027848656,5.577893545465923,6.3231463827849925,
23.400008037131542,5.5717311592920336,6.29468839528001,
23.500010046414427,5.565659199804411,6.266473385192528,
23.600012055697313,5.559676037408379,6.238499169176832,
23.7000140649802,5.553780073959999,6.210763562810984,
23.800016074263084,5.547969742234395,6.183264381806795,
23.90001808354597,5.54224350539597,6.1559994431611536,
24.000020092828855,5.536599856471042,6.128966566250577,
24.10002210211174,5.531037317823386,6.102163573870834,
24.200024111394626,5.525554440633143,6.07558829322347,
24.30002612067751,5.520149804379498,6.0492385568509714,
24.400028129960397,5.514822016327517,6.023112203522432,
24.500030139243282,5.50956971101948,5.997207079071352,
24.600032148526168,5.50439154977104,5.971521037187358,
24.700034157809053,5.4992862201724835,5.946051940163466,
24.80003616709194,5.494252435595353,5.920797659600522,
24.900038176374824,5.489288934704676,5.895756077070475,
25.00004018565771,5.484394480976993,5.870925084739959,
25.100042194940595,5.47956786222439,5.846302585955781,
25.20004420422348,5.474807890124673,5.8218864957937715,
25.300046213506366,5.470113399757863,5.7976747415724414,
25.400048222789252,5.465483249149105,5.773665263332889,
25.500050232072137,5.4609163188181125,5.749856014286252,
25.600052241355023,5.456411511335242,5.726244961230151,
25.70005425063791,5.451967750884258,5.702830084935302,
25.800056259920794,5.447583982831858,5.679609380503628,
25.90005826920368,5.44325917330401,5.656580857699055,
26.000060278486565,5.4389923087691106,5.633742541252184,
26.10006228776945,5.434782395628021,5.61109247113996,
26.200064297052336,5.430628459810963,5.58862870284147,
26.30006630633522,5.426529546381283,5.566349307570899,
26.400068315618107,5.422484719146088,5.54425237248873,
26.500070324900992,5.418493060273718,5.522336000892121,
26.600072334183878,5.414553669918039,5.500598312385476,
26.700074343466763,5.410665665849522,5.479037443032089,
26.80007635274965,5.40682818309307,5.457651545487802,
26.900078362032534,5.40304037357254,5.436438789117501,
27.00008037131542,5.399301405761923,5.415397360095314,
27.100082380598305,5.395610464343106,5.394525461489279,
27.20008438988119,5.391966749870169,5.373821313331264,
27.300086399164076,5.388369478440148,5.3532831526728994,
27.400088408446962,5.384817881370193,5.3329092336282,
27.500090417729847,5.3813112048810465,5.312697827403596,
27.600092427012733,5.377848709786772,5.292647222315994,
27.70009443629562,5.374429671190646,5.272755723799532,
27.800096445578504,5.371053378187144,5.253021654401622,
27.90009845486139,5.367719133569921,5.2334433537688545,
28.000100464144275,5.364426253545721,5.214019178623348,
28.10010247342716,5.361174067454114,5.194747502730031,
28.200104482710046,5.357961917492976,5.175626716855437,
28.30010649199293,5.354789158449627,5.1566552287184315,
28.400108501275817,5.351655157437537,5.137831462933408,
28.500110510558702,5.348559293638506,5.119153860946357,
28.600112519841588,5.34550095805023,5.100620880964253,
28.700114529124473,5.342479553239157,5.082230997878189,
28.80011653840736,5.339494493098552,5.063982703180624,
28.900118547690244,5.3365452026116715,5.045874504877151,
29.00012055697313,5.33363111761995,5.027904927393113,
29.100122566256015,5.3307516845961285,5.010072511475446,
29.2001245755389,5.327906360422213,4.99237581409006,
29.300126584821786,5.325094612172184,4.974813408315057,
29.40012859410467,5.322315916899362,4.957383883230126,
29.500130603387557,5.319569761428349,4.940085843802356,
29.600132612670443,5.316855642151444,4.922917910768776,
29.700134621953328,5.314173064829459,4.905878720515865,
29.800136631236214,5.3115215443968395,4.88896692495627,
29.9001386405191,5.308900604771005,4.872181191402982,
30.000140649801985,5.306309778665833,4.855520202441205,
30.10014265908487,5.303748607409187,4.83898265579809,
30.200144668367756,5.301216640764425,4.822567264210596,
30.30014667765064,5.29871343675579,4.806272755291606,
30.400148686933527,5.296238561497614,4.790097871394554,
30.500150696216412,5.293791589027247,4.774041369476649,
30.600152705499298,5.29137210114164,4.758102020960955,
30.700154714782183,5.288979687237502,4.742278611597413,
30.80015672406507,5.286613944154955,4.726569941322989,
30.900158733347954,5.284274476024613,4.710974824121074,
31.00016074263084,5.281960894118011,4.695492087880276,
31.100162751913725,5.2796728167013125,4.6801205742527365,
31.20016476119661,5.277409868892225,4.664859138512077,
31.300166770479496,5.275171682520056,4.649706649411101,
31.40016877976238,5.272957895988832,4.63466198903935,
31.500170789045267,5.270768154143428,4.6197240526806125,
31.600172798328153,5.268602108138627,4.604891748670502,
31.700174807611038,5.266459415311055,4.590163998254149,
31.800176816893924,5.264339739053924,4.575539735444174,
31.90017882617681,5.262242748694521,4.561017906878894,
32.000180835459695,5.260168119374382,4.546597471680987,
32.100182844742584,5.2581155319320905,4.532277401316542,
32.20018485402547,5.256084672788648,4.518056679454689,
32.30018686330836,5.254075233835348,4.503934301827753,
32.40018887259125,5.252086912324104,4.489909276092096,
32.50019088187414,5.250119410760179,4.47598062168961,
32.60019289115703,5.248172436797262,4.462147369709987,
32.70019490043992,5.246245703134822,4.448408562753762,
32.80019690972281,5.244338927417721,4.434763254796188,
32.900198919005696,5.242451832137999,4.421210511051999,
33.000200928288585,5.240584144538811,4.4077494078410755,
33.100202937571474,5.2387355965204465,4.394379032455063,
33.20020494685436,5.236905924548399,4.3810984830249815,
33.30020695613725,5.235094869563428,4.36790686838982,
33.40020896542014,5.2333021768935755,4.354803307966202,
33.50021097470303,5.231527596168092,4.3417869316190885,
33.60021298398592,5.229770881233219,4.328856879533583,
33.70021499326881,5.228031790069805,4.316012302087839,
33.8002170025517,5.226310084712686,4.303252359727083,
33.90021901183459,5.224605531171825,4.29057622283881,
34.000221021117476,5.222917899355133,4.2779830716291185,
34.100223030400365,5.221246962992963,4.265472096000202,
34.200225039683254,5.219592499564225,4.253042495429074,
34.30022704896614,5.217954290224081,4.240693478847431,
34.40022905824903,5.2163321197332015,4.228424264522776,
34.50023106753192,5.214725776388526,4.2162340799406985,
34.60023307681481,5.213135051955511,4.204122161688423,
34.7002350860977,5.211559741601819,4.192087755339548,
34.80023709538059,5.209999643832427,4.180130115340042,
34.90023910466348,5.2084545604261105,4.16824850489543,
35.000241113946366,5.206924296373281,4.156442195859262,
35.100243123229255,5.205408659815143,4.144710468622785,
35.200245132512144,5.2039074619841355,4.133052612005845,
35.30024714179503,5.202420517145639,4.121467923149062,
35.40024915107792,5.200947642540911,4.109955707407186,
35.50025116036081,5.199488658331223,4.098515278243717,
35.6002531696437,5.1980433875431755,4.087145957126751,
35.70025517892659,5.196611656015163,4.075847073426036,
35.80025718820948,5.1951932923449595,4.064617964311256,
35.90025919749237,5.193788127838402,4.053457974651519,
36.00026120677526,5.192395996459148,4.042366456916086,
36.100263216058146,5.191016734779483,4.031342771076246,
36.200265225341035,5.189650181932147,4.020386284508465,
36.300267234623924,5.18829617956317,4.009496371898652,
36.40026924390681,5.186954571785678,3.998672415147634,
36.5002712531897,5.185625205134668,3.9879138032778423,
36.60027326247259,5.184307928522704,3.977219932341104,
36.70027527175548,5.183002593196537,3.9665902053276434,
36.80027728103837,5.18170905269462,3.9560240320761957,
36.90027929032126,5.180427162805487,3.945520829185301,
37.00028129960415,5.179156781526997,3.935080019925685,
37.100283308887036,5.177897769026405,3.92470103415381,
37.200285318169925,5.176649987601255,3.914383308226501,
37.300287327452814,5.175413301641068,3.904126284916692,
37.4002893367357,5.174187577589811,3.893929413330277,
37.50029134601859,5.172972683909128,3.88379214882401,
37.60029335530148,5.171768491042318,3.873713952924508,
37.70029536458437,5.170574871379044,3.8636942932483116,
37.80029737386726,5.169391699220752,3.8537326434229966,
37.90029938315015,5.168218850746788,3.8438284830093075,
38.00030139243304,5.1670562039812005,3.8339812974243492,
38.10030340171593,5.165903638760203,3.824190577865783,
38.200305410998816,5.164761036700296,3.814455821237034,
38.300307420281705,5.163628281167021,3.8047765300735072,
38.400309429564594,5.1625052572443435,3.795152212469759,
38.50031143884748,5.161391851704638,3.7855823820076795,
38.60031344813037,5.160287952979282,3.776066557685631,
38.70031545741326,5.159193451129818,3.7666042638485293,
38.80031746669615,5.158108237819703,3.7571950301188726,
38.90031947597904,5.1570322062866,3.747838391328697,
39.00032148526193,5.15596525131523,3.738533887452473,
39.10032349454482,5.154907269210747,3.729281063540885,
39.200325503827706,5.1538581577726434,3.7200794696555413,
39.300327513110595,5.152817816269163,3.7109286608045253,
39.400329522393484,5.151786145412214,3.7018281968788695,
39.50033153167637,5.150763047332775,3.6927776425898813,
39.60033354095926,5.149748425556772,3.6837765674073037,
39.70033555024215,5.148742184981435,3.6748245454983426,
39.80033755952504,5.147744231852105,3.665921155667539,
39.90033956880793,5.146754473739489,3.657065981297414,
40.00034157809082,5.1457728195173615,3.6482586102899957,
40.10034358737371,5.144799179340686,3.63949863500908,
40.2003455966566,5.143833464624167,3.6307856522233486,
40.300347605939486,5.142875588021201,3.6221192630502013,
40.400349615222375,5.141925463403244,3.6134990729004204,
40.500351624505264,5.140983005839564,3.6049246914235513,
40.60035363378815,5.1400481315773785,3.596395732454064,
40.70035564307104,5.139120758022377,3.5879118139582253,
40.80035765235393,5.138200803719604,3.5794725579817346,
40.90035966163682,5.137288188334716,3.571077590598074,
41.00036167091971,5.136382832635574,3.562726541857521,
41.1003636802026,5.135484658474205,3.554419045736954,
41.20036568948549,5.134593588769083,3.5461547400902584,
41.300367698768376,5.133709547487757,3.537933266599481,
41.400369708051265,5.132832459629793,3.5297542707266083,
41.500371717334154,5.131962251210045,3.521617401666053,
41.60037372661704,5.13109884924223,3.5135223122977703,
41.70037573589993,5.13024218172281,3.5054686591410125,
41.80037774518282,5.129392177615177,3.4974561023087345,
41.90037975446571,5.128548766834128,3.4894843054626494,
42.0003817637486,5.127711880230625,3.4815529357688364,
42.10038377303149,5.12688144957684,3.4736616638540374,
42.20038578231438,5.126057407551471,3.4658101637624905,
42.30038779159727,5.125239687725333,3.4579981129134123,
42.400389800880156,5.124428224547206,3.4502251920590084,
42.500391810163045,5.123622953329946,3.442491085243119,
42.600393819445934,5.1228238102368495,3.43479547976038,
42.70039582872882,5.122030732268264,3.4271380661159845,
42.80039783801171,5.121243657248444,3.419518537985975,
42.9003998472946,5.1204625238126384,3.4119365921780793,
43.00040185657749,5.119687271394423,3.4043919285931032,
43.10040386586038,5.118917840213252,3.3968842501868366,
43.20040587514327,5.1181541712622325,3.38941326293247,
43.30040788442616,5.117396206296128,3.381978675783543,
43.400409893709046,5.116643887819569,3.3745802006374186,
43.500411902991935,5.115897159075473,3.367217552299197,
43.600413912274824,5.11515596403368,3.3598904484461896,
43.70041592155771,5.114420247379779,3.3525986095928184,
43.8004179308406,5.1136899545041405,3.345341759056045,
43.90041994012349,5.112965031491143,3.3381196229212398,
44.00042194940638,5.1122454251085845,3.330931930008517,
44.10042395868927,5.111531082797286,3.323778411839535,
44.20042596797216,5.110821952660877,3.31665880260477,
44.30042797725505,5.1101179834557575,3.309572839131171,
44.40042998653794,5.1094191245812395,3.302520260850322,
44.500431995820826,5.108725326069857,3.295500809766991,
44.600434005103715,5.108036538577851,3.28851423042814,
44.700436014386604,5.107352713375812,3.281560269892315,
44.80043802366949,5.106673802339492,3.274638677699473,
44.90044003295238,5.105999757940771,3.267749205841208,
45.00044204223527,5.105330533238784,3.26089160873141,
45.10044405151816,5.104666081871195,3.2540656431772446,
45.20044606080105,5.104006358045629,3.247271068350613,
45.30044807008394,5.103351316531243,3.2405076457599313,
45.40045007936683,5.102700912650449,3.233775139222313,
45.500452088649716,5.1020551022707705,3.227073314836108,
45.600454097932605,5.101413841796847,3.220401940953858,
45.700456107215494,5.100777088162567,3.213760788155538,
45.80045811649838,5.100144798823337,3.2071496292222195,
45.90046012578127,5.099516931748482,3.200568239110045,
46.00046213506416,5.09889344541378,3.194016394924591,
46.10046414434705,5.098274298794107,3.1874938758955045,
46.20046615362994,5.097659451356224,3.1810004633515607,
46.30046816291283,5.097048863051673,3.1745359406959825,
46.40047017219572,5.096442494309796,3.168100093382113,
46.50047218147861,5.095840306030875,3.1616927088894426,
46.600474190761496,5.095242259579376,3.1553135766998803,
46.700476200044385,5.094648316777313,3.1489624882744014,
46.800478209327274,5.094058439897727,3.142639237029984,
46.90048021861016,5.093472591658258,3.1363436183168334,
47.00048222789305,5.092890735214839,3.1300754293959265,
47.10048423717594,5.092312834155486,3.1238344694168525,
47.20048624645883,5.0917388524941884,3.117620539395911,
47.30048825574172,5.091168754664908,3.111433442194544,
47.40049026502461,5.090602505515668,3.105272982498017,
47.5004922743075,5.090040070302743,3.0991389667943823,
47.600494283590386,5.089481414684946,3.0930312033537497,
47.700496292873275,5.088926504718,3.086949502207755,
47.800498302156164,5.08837530684901,3.080893675129377,
47.90050031143905,5.087827787911024,3.0748635356129714,
48.00050232072194,5.087283915117674,3.0688588988545638,
48.10050433000483,5.086743656057912,3.0628795817324086,
48.20050633928772,5.086206978690827,3.0569254027877957,
48.30050834857061,5.085673851340545,3.0509961822061022,
48.4005103578535,5.085144242691214,3.0450917417981023,
48.50051236713639,5.084618121782068,3.039211904981489,
48.60051437641928,5.084095458002564,3.0333564967626683,
48.700516385702166,5.083576221087608,3.027525343718742,
48.800518394985055,5.083060381112844,3.021718273979775,
48.900520404267944,5.082547908490032,3.0159351172112476,
49.00052241355083,5.082038773962483,3.0101757045967448,
49.10052442283372,5.081532948600584,3.0044398688208735,
49.20052643211661,5.081030403797374,2.9987274440523684,
49.3005284413995,5.080531111264209,2.9930382659274564,
49.40053045068239,5.08003504302648,2.9873721715333996,
49.50053245996528,5.079542171419407,2.9817289993922564,
49.60053446924817,5.079052469083894,2.9761085894448396,
49.700536478531056,5.078565908962455,2.9705107830348974,
49.800538487813945,5.078082464295192,2.9649354228934683,
49.900540497096834,5.077602108615848,2.9593823531234413,
50.00054250637972,5.077124815747912,2.9538514191843146,
50.10054451566261,5.076650559800793,2.948342467877148,
50.2005465249455,5.0761793151660415,2.9428553473296812,
50.30054853422839,5.07571105651364,2.93738990698167,
50.40055054351128,5.075245758788346,2.9319459975703737,
50.50055255279417,5.074783397206089,2.9265234711162535,
50.60055456207706,5.07432394725043,2.9211221809088133,
50.70055657135995,5.073867384669063,2.915741981492644,
50.800558580642836,5.073413685470382,2.910382728653623,
50.900560589925725,5.072962825920095,2.9050442794052938,
51.000562599208614,5.072514782537889,2.8997264919754144,
51.1005646084915,5.072069532094142,2.8944292257926527,
51.20056661777439,5.071627051606698,2.889152341473482,
51.30056862705728,5.071187318337673,2.8838957008091874,
51.40057063634017,5.070750309790321,2.8786591667530628,
51.50057264562306,5.070316003705943,2.8734426034077534,
51.60057465490595,5.069884378060846,2.868245876012777,
51.70057666418884,5.069455411063339,2.863068850932153,
51.800578673471726,5.069029081150786,2.8579113956422075,
51.900580682754615,5.068605366986689,2.8527733787195126,
52.000582692037504,5.068184247457827,2.8476546698289966,
52.10058470132039,5.067765701671432,2.842555139712169,
52.20058671060328,5.0673497089524036,2.8374746601755034,
52.30058871988617,5.066936248840571,2.832413104078939,
52.40059072916906,5.066525301087993,2.8273703453245536,
52.50059273845195,5.066116845656294,2.8223462588453394,
52.60059474773484,5.065710862714046,2.8173407205941223,
52.70059675701773,5.065307332634182,2.812353607532618,
52.80059876630062,5.064906235991454,2.807384797620611,
52.900600775583506,5.064507553559921,2.80243416980528,
53.000602784866395,5.0641112663104835,2.797501604010615,
53.100604794149284,5.063717355408439,2.792586981126977,
53.20060680343217,5.063325802211089,2.7876901830007936,
53.30060881271506,5.06293658826537,2.782811092424348,
53.40061082199795,5.062549695305523,2.7779495931257188,
53.50061283128084,5.062165105250794,2.7731055697587923,
53.60061484056373,5.061782800203172,2.768278907893442,
53.70061684984662,5.061402762445154,2.7634694940057756,
53.80061885912951,5.061024974437548,2.758677215468542,
53.900620868412396,5.0606494188173,2.7539019605415826,
54.000622877695285,5.060276078395359,2.7491436183624733,
54.100624886978174,5.05990493615457,2.744402078937217,
54.20062689626106,5.059535975247598,2.7396772331310566,
54.30062890554395,5.059169178994873,2.734968972659379,
54.40063091482684,5.05880453088258,2.7302771900787617,
54.50063292410973,5.058442014560663,2.725601778778084,
54.60063493339262,5.058081613840867,2.72094263296976,
54.70063694267551,5.057723312694797,2.7162996476810477,
54.8006389519584,5.05736709525202,2.7116727187454837,
54.90064096124129,5.057012945798174,2.7070617427943926,
55.000642970524176,5.056660848773123,2.702466617248496,
55.100644979807065,5.056310788769121,2.6978872403096252,
55.200646989089954,5.055962750529015,2.6933235109525144,
55.30064899837284,5.055616718944463,2.688775328916675,
55.40065100765573,5.055272679054183,2.6842425946984028,
55.50065301693862,5.054930616042224,2.6797252095428044,
55.60065502622151,5.054590515236261,2.675223075435989,
55.7006570355044,5.054252362105913,2.6707360950972845,
55.80065904478729,5.053916142261086,2.6662641719715463,
55.90066105407018,5.0535818414503355,2.6618072102216006,
56.000663063353066,5.053249445559257,2.6573651147206996,
56.100665072635955,5.052918940608893,2.65293779104511,
56.200667081918844,5.052590312754163,2.64852514546675,
56.30066909120173,5.052263548282319,2.644127084945918,
56.40067110048462,5.051938633611415,2.6397435171240957,
56.50067310976751,5.051615555288805,2.635374350316857,
56.6006751190504,5.051294299989657,2.631019493506782,
56.70067712833329,5.050974854515484,2.6266788563365173,
56.80067913761618,5.050657205792705,2.6223523491018623,
56.90068114689907,5.050341340871213,2.6180398827449625,
57.00068315618196,5.050027246922972,2.6137413688475517,
57.100685165464846,5.0497149112406285,2.6094567196242533,
57.200687174747735,5.049404321236143,2.605185847915994,
57.300689184030624,5.049095464439436,2.6009286671834357,
57.40069119331351,5.04878832849706,2.5966850915005133,
57.5006932025964,5.048482901170881,2.592455035548003,
57.60069521187929,5.048179170336783,2.588238414607197,
57.70069722116218,5.047877123983389,2.584035144553625,
57.80069923044507,5.047576750210792,2.5798451418507993,
57.90070123972796,5.047278037229318,2.575668323544087,
58.00070324901085,5.046980973358286,2.5715046072546075,
58.100705258293736,5.046685547024802,2.567353911173197,
58.200707267576625,5.046391746762558,2.5632161540544196,
58.300709276859514,5.04609956121065,2.5590912552106753,
58.4007112861424,5.045808979112413,2.554979134506329,
58.50071329542529,5.045519989314268,2.550879712351887,
58.60071530470818,5.045232580764589,2.546792909698297,
58.70071731399107,5.044946742512576,2.5427186480312036,
58.80071932327396,5.044662463707157,2.538656849365357,
