Time,Mass,Radius,Lx
23.0,5.596940043010154,6.41,0.0
23.100002009282885,5.590552953041359,6.381037036929277,0.0
23.20000401856577,5.58436987132354,6.352783275796687,0.0
23.300006027848656,5.5783821239350475,6.325215694887268,0.0
23.400008037131542,5.572581492233473,6.298312155652846,0.0
23.500010046414427,5.5669601849360415,6.272051366679145,0.0
23.600012055697313,5.561510812119154,6.2464128489205795,0.0
23.7000140649802,5.5562263609943185,6.221376902203639,0.0
23.800016074263084,5.5511001733287575,6.1969245729907545,0.0
23.90001808354597,5.546125924389256,6.173037623389497,0.0
24.000020092828855,5.5412976032972106,6.149698501386034,0.0
24.10002210211174,5.536609494691565,6.126890312277267,0.0
24.200024111394626,5.532056161604319,6.104596791272373,0.0
24.30002612067751,5.527632429460668,6.082802277231778,0.0
24.400028129960397,5.523333371122651,6.061491687509582,0.0
24.500030139243282,5.519154292901405,6.040650493863966,0.0
24.600032148526168,5.515090721468886,6.020264699399249,0.0
24.700034157809053,5.511138391605235,6.000320816502748,0.0
24.80003616709194,5.507293234722798,5.980805845739477,0.0
24.900038176374824,5.503551368112326,5.961707255667786,0.0
25.00004018565771,5.499909084860989,5.943012963539548,0.0
25.100042194940595,5.496362844395631,5.924711316848908,0.0
25.20004420422348,5.492909263608207,5.906791075694487,0.0
25.300046213506366,5.489545108523539,5.889241395920665,0.0
25.400048222789252,5.486267286472496,5.872051813004505,0.0
25.500050232072137,5.4830728387364465,5.8552122266559365,0.0
25.600052241355023,5.479958933631322,5.838712886099783,0.0
25.70005425063791,5.476922860001969,5.822544376009374,0.0
25.800056259920794,5.473962021099581,5.8066976030624655,0.0
25.90005826920368,5.471073928816997,5.791163783091461,0.0
26.000060278486565,5.468256198258448,5.775934428800824,0.0
26.10006228776945,5.465506542622016,5.761001338025844,0.0
26.200064297052336,5.462822768374626,5.746356582507886,0.0
26.30006630633522,5.460202770700807,5.73199249716232,0.0
26.400068315618107,5.457644529207788,5.7179016698164045,0.0
26.500070324900992,5.455146103870714,5.70407693139534,0.0
26.600072334183878,5.452705631202887,5.690511346535727,0.0
26.700074343466763,5.450321320636996,5.677198204606583,0.0
26.80007635274965,5.44799145110424,5.664131011118954,0.0
26.900078362032534,5.445714367799178,5.651303479506096,0.0
27.00008037131542,5.443488479118927,5.6387095232569955,0.0
27.100082380598305,5.441312253766127,5.626343248386803,0.0
27.20008438988119,5.439184218005787,5.614198946228541,0.0
27.300086399164076,5.43710295306679,5.602271086531244,0.0
27.400088408446962,5.435067092679444,5.590554310850262,0.0
27.500090417729847,5.433075320741028,5.579043426216284,0.0
27.600092427012733,5.431126369101828,5.567733399070216,0.0
27.70009443629562,5.429219015464616,5.556619349451639,0.0
27.800096445578504,5.427352081391012,5.545696545429259,0.0
27.90009845486139,5.425524430408564,5.534960397762202,0.0
28.000100464144275,5.423734966212793,5.524406454781639,0.0
28.10010247342716,5.421982630958805,5.514030397482706,0.0
28.200104482710046,5.420266403637416,5.5038280348171345,0.0
28.30010649199293,5.418585298531051,5.493795299177535,0.0
28.400108501275817,5.416938363744975,5.483928242064653,0.0
28.500110510558702,5.4153246798096895,5.474223029929391,0.0
28.600112519841588,5.413743358350577,5.464675940181716,0.0
28.700114529124473,5.412193540821129,5.455283357359063,0.0
28.80011653840736,5.410674397296299,5.446041769447049,0.0
28.900118547690244,5.409185125322752,5.436947764345813,0.0
29.00012055697313,5.4077249488229455,5.427998026475507,0.0
29.100122566256015,5.406293117050196,5.419189333514812,0.0
29.2001245755389,5.404888903592022,5.410518553266664,0.0
29.300126584821786,5.403511605419237,5.401982640645629,0.0
29.40012859410467,5.402160541978394,5.3935786347815995,0.0
29.500130603387557,5.400835054325341,5.385303656234835,0.0
29.600132612670443,5.399534504297773,5.377154904317493,0.0
29.700134621953328,5.398258273724762,5.369129654517078,0.0
29.800136631236214,5.397005763671412,5.361225256017487,0.0
29.9001386405191,5.395776393716839,5.353439129313434,0.0
30.000140649801985,5.394569601263813,5.345768763914336,0.0
30.10014265908487,5.3933848408784755,5.338211716133879,0.0
30.200144668367756,5.392221583658645,5.330765606961629,0.0
30.30014667765064,5.391079316629291,5.32342812001328,0.0
30.400148686933527,5.389957542163852,5.316196999556263,0.0
30.500150696216412,5.388855777430133,5.309070048607544,0.0
30.600152705499298,5.387773553859595,5.30204512710069,0.0
30.700154714782183,5.386710416638911,5.295120150119335,0.0
30.80015672406507,5.3856659242227165,5.28829308619426,0.0
30.900158733347954,5.3846396478665515,5.281561955661604,0.0
31.00016074263084,5.383631171179039,5.274924829079637,0.0
31.100162751913725,5.382640089692395,5.2683798257017695,0.0
31.20016476119661,5.381666010450408,5.261925112003517,0.0
31.300166770479496,5.380708551613085,5.255558900261278,0.0
31.40016877976238,5.379767342077192,5.249279447180832,0.0
31.500170789045267,5.37884202111195,5.2430850525736306,0.0
31.600172798328153,5.377932238009211,5.236974058078925,0.0
31.700174807611038,5.37703765174744,5.230944845929999,0.0
31.800176816893924,5.376157930668891,5.224995837762728,0.0
31.90017882617681,5.375292752169385,5.219125493464846,0.0
32.000180835459695,5.374441802400116,5.21333231006431,0.0
32.100182844742584,5.373604775980966,5.207614820655298,0.0
32.20018485402547,5.372781375724814,5.201971593360334,0.0
32.30018686330836,5.371971312372359,5.196401230327227,0.0
32.40018887259125,5.3711743043369955,5.190902366759427,0.0
32.50019088187414,5.370390077459306,5.18547366997858,0.0
32.60019289115703,5.369618364770761,5.180113838518041,0.0
32.70019490043992,5.368858906266226,5.1748216012462045,0.0
32.80019690972281,5.368111448684899,5.169595716518505,0.0
32.900198919005696,5.367375745299326,5.164434971357042,0.0
33.000200928288585,5.366651555712154,5.159338180656816,0.0
33.100202937571474,5.365938645660283,5.154304186417548,0.0
33.20020494685436,5.365236786826134,5.1493318570001945,0.0
33.30020695613725,5.364545756655708,5.144420086407217,0.0
33.40020896542014,5.363865338183182,5.139567793585762,0.0
33.50021097470303,5.363195319861751,5.134773921752919,0.0
33.60021298398592,5.362535495400484,5.13003743774224,0.0
33.70021499326881,5.361885663606923,5.125357331370768,0.0
33.8002170025517,5.3612456282352206,5.120732614825864,0.0
33.90021901183459,5.360615197839569,5.116162322071091,0.0
34.000221021117476,5.3599941856327264,5.111645508270492,0.0
34.100223030400365,5.359382409349428,5.107181249230612,0.0
34.200225039683254,5.358779691114494,5.102768640859662,0.0
34.30022704896614,5.358185857315442,5.098406798643179,0.0
34.40022905824903,5.357600738479441,5.094094857135646,0.0
34.50023106753192,5.357024169154419,5.089831969467518,0.0
34.60023307681481,5.356455987794184,5.0856173068670785,0.0
34.7002350860977,5.35589603664738,5.081450058196679,0.0
34.80023709538059,5.355344161650155,5.077329429502802,0.0
34.90023910466348,5.354800212322385,5.0732546435795545,0.0
35.000241113946366,5.354264041667314,5.0692249395450535,0.0
35.100243123229255,5.353735506074499,5.065239572430311,0.0
35.200245132512144,5.3532144652259195,5.061297812780223,0.0
35.30024714179503,5.3527007820051375,5.0573989462661935,0.0
35.40024915107792,5.352194322409399,5.053542273310042,0.0
35.50025116036081,5.351694955464559,5.049727108718832,0.0
35.6002531696437,5.351202553142739,5.0459527813302305,0.0
35.70025517892659,5.350716990282601,5.042218633668057,0.0
35.80025718820948,5.350238144512151,5.0385240216077,0.0
35.90025919749237,5.3497658961739845,5.0348683140510815,0.0
36.00026120677526,5.349300128252875,5.031250892610824,0.0
36.100263216058146,5.348840726305629,5.027671151303369,0.0
36.200265225341035,5.348387578393119,5.024128496250716,0.0
36.300267234623924,5.3479405750144275,5.020622345390551,0.0
36.40026924390681,5.347499609043019,5.017152128194441,0.0
36.5002712531897,5.347064575664862,5.01371728539386,0.0
36.60027326247259,5.346635372318456,5.010317268713852,0.0
36.70027527175548,5.346211898636666,5.006951540613972,0.0
36.80027728103837,5.345794056390325,5.003619574036398,0.0
36.90027929032126,5.345381749433533,5.000320852160895,0.0
37.00028129960415,5.344974883650594,4.997054868166492,0.0
37.100283308887036,5.344573366904542,4.993821124999602,0.0
37.200285318169925,5.344177108987186,4.9906191351484095,0.0
37.300287327452814,5.343786021570643,4.987448420423358,0.0
37.4002893367357,5.343400018160289,4.984308511743488,0.0
37.50029134601859,5.343019014049097,4.981198948928518,0.0
37.60029335530148,5.342642926273298,4.9781192804964345,0.0
37.70029536458437,5.342271673569337,4.975069063466451,0.0
37.80029737386726,5.341905176332075,4.972047863167193,0.0
37.90029938315015,5.341543356574182,4.969055253049872,0.0
38.00030139243304,5.341186137886713,4.966090814506422,0.0
38.10030340171593,5.340833445400793,4.963154136692338,0.0
38.200305410998816,5.340485205750397,4.960244816354132,0.0
38.300307420281705,5.340141347036188,4.957362457661253,0.0
38.400309429564594,5.339801798790364,4.954506672042365,0.0
38.50031143884748,5.339466491942498,4.951677078025801,0.0
38.60031344813037,5.339135358786331,4.9488733010841255,0.0
38.70031545741326,5.338808332947487,4.946094973482652,0.0
38.80031746669615,5.338485349352084,4.943341734131826,0.0
38.90031947597904,5.338166344196209,4.940613228443309,0.0
39.00032148526193,5.3378512549162345,4.937909108189744,0.0
39.10032349454482,5.337540020159944,4.935229031368003,0.0
39.200325503827706,5.337232579758443,4.932572662065885,0.0
39.300327513110595,5.336928874698839,4.929939670332122,0.0
39.400329522393484,5.336628847097649,4.927329732049631,0.0
39.50033153167637,5.336332440174932,4.924742528811899,0.0
39.60033354095926,5.336039598229108,4.922177747802417,0.0
39.70033555024215,5.335750266612453,4.919635081677077,0.0
39.80033755952504,5.335464391707246,4.917114228449462,0.0
39.90033956880793,5.335181920902541,4.91461489137892,0.0
40.00034157809082,5.334902802571561,4.912136778861384,0.0
40.10034358737371,5.334626986049676,4.909679604322807,0.0
40.2003455966566,5.334354421612965,4.9072430861152,0.0
40.300347605939486,5.334085060457333,4.904826947415154,0.0
40.400349615222375,5.333818854678168,4.902430916124807,0.0
40.500351624505264,5.333555757250528,4.900054724775166,0.0
40.60035363378815,5.333295722009836,4.897698110431758,0.0
40.70035564307104,5.333038703633068,4.895360814602471,0.0
40.80035765235393,5.332784657620431,4.893042583147638,0.0
40.90035966163682,5.332533540277492,4.890743166192186,0.0
41.00036167091971,5.332285308697773,4.888462318039884,0.0
41.1003636802026,5.332039920745781,4.886199797089576,0.0
41.20036568948549,5.331797335040465,4.883955365753385,0.0
41.300367698768376,5.331557510939085,4.881728790376801,0.0
41.400369708051265,5.331320408521492,4.879519841160651,0.0
41.500371717334154,5.33108598857479,4.877328292084834,0.0
41.60037372661704,5.330854212578381,4.875153920833835,0.0
41.70037573589993,5.330625042689384,4.872996508723944,0.0
41.80037774518282,5.330398441728406,4.87085584063214,0.0
41.90037975446571,5.330174373165663,4.8687317049265815,0.0
42.0003817637486,5.3299528011074475,4.866623893398696,0.0
42.10038377303149,5.329733690282913,4.864532201196801,0.0
42.20038578231438,5.329517006031188,4.862456426761213,0.0
42.30038779159727,5.3293027142888,4.860396371760828,0.0
42.400389800880156,5.3290907815773965,4.85835184103111,0.0
42.500391810163045,5.328881174991768,4.856322642513486,0.0
42.600393819445934,5.328673862188151,4.854308587196071,0.0
42.70039582872882,5.328468811372816,4.852309489055713,0.0
42.80039783801171,5.328265991290917,4.850325165001336,0.0
42.9003998472946,5.328065371215614,4.848355434818508,0.0
43.00040185657749,5.327866919808195,4.846400114873779,0.0
43.10040386586038,5.32766976438152,4.844454370967775,0.0
43.20040587514327,5.327473060934361,4.842513526139346,0.0
43.30040788442616,5.327276807435892,4.840577556818163,0.0
43.400409893709046,5.327081001868987,4.83864643960133,0.0
43.500411902991935,5.326885642230098,4.836720151251802,0.0
43.600413912274824,5.326690726529133,4.834798668696848,0.0
43.70041592155771,5.326496252789332,4.832881969026495,0.0
43.8004179308406,5.326302219047153,4.8309700294920255,0.0
43.90041994012349,5.326108623352151,4.829062827504482,0.0
44.00042194940638,5.325915463766861,4.827160340633164,0.0
44.10042395868927,5.325722738366683,4.825262546604178,0.0
44.20042596797216,5.32553044523977,4.823369423298986,0.0
44.30042797725505,5.325338582486913,4.821480948752976,0.0
44.40042998653794,5.32514714822143,4.819597101154038,0.0
44.500431995820826,5.324956140569054,4.817717858841167,0.0
44.600434005103715,5.324765557667829,4.815843200303093,0.0
44.700436014386604,5.324575397667996,4.813973104176886,0.0
44.80043802366949,5.324385658731889,4.812107549246633,0.0
44.90044003295238,5.324196339033831,4.810246514442083,0.0
45.00044204223527,5.324007436760027,4.808389978837331,0.0
45.10044405151816,5.323818950108462,4.8065379216495066,0.0
45.20044606080105,5.3236308772887995,4.804690322237491,0.0
45.30044807008394,5.323443216522277,4.802847160100622,0.0
45.40045007936683,5.323255966041611,4.801008414877459,0.0
45.500452088649716,5.323069124090894,4.7991740663445,0.0
45.600454097932605,5.322882688925501,4.797344094414976,0.0
45.700456107215494,5.322696658811989,4.795518479137606,0.0
45.80045811649838,5.322511032028,4.793697200695408,0.0
45.90046012578127,5.322325806862173,4.791880239404485,0.0
46.00046213506416,5.322140981614043,4.790067575712861,0.0
46.10046414434705,5.321956554593952,4.788259190199305,0.0
46.20046615362994,5.321772524122959,4.786455063572174,0.0
46.30046816291283,5.321588888532745,4.784655176668272,0.0
46.40047017219572,5.321405646165526,4.782859510451722,0.0
46.50047218147861,5.321222795373963,4.781068046012844,0.0
46.600474190761496,5.321040334521075,4.779280764567048,0.0
46.700476200044385,5.320858261980152,4.777497647453748,0.0
46.800478209327274,5.320676576134668,4.775718676135268,0.0
46.90048021861016,5.320495275378197,4.773943832195789,0.0
47.00048222789305,5.320314358114328,4.772173097340266,0.0
47.10048423717594,5.320133822756583,4.77040645339341,0.0
47.20048624645883,5.319953667728332,4.768643882298628,0.0
47.30048825574172,5.319773891462714,4.766885366117009,0.0
47.40049026502461,5.319594492402554,4.76513088702631,0.0
47.5004922743075,5.319415469000284,4.763380427319952,0.0
47.600494283590386,5.319236819717865,4.761633969406022,0.0
47.700496292873275,5.319058543026707,4.759891495806304,0.0
47.800498302156164,5.3188806374075925,4.758152989155297,0.0
47.90050031143905,5.318703101350598,4.756418432199257,0.0
48.00050232072194,5.318525933355022,4.75468780779525,0.0
48.10050433000483,5.318349131929304,4.752961098910207,0.0
48.20050633928772,5.318172695590958,4.751238288619997,0.0
48.30050834857061,5.317996622866489,4.749519360108497,0.0
48.4005103578535,5.317820912291329,4.7478042966666925,0.0
48.50051236713639,5.31764556240976,4.746093081691772,0.0
48.60051437641928,5.317470571774845,4.744385698686232,0.0
48.700516385702166,5.317295938948356,4.7426821312569984,0.0
48.800518394985055,5.317121662500702,4.74098236311454,0.0
48.900520404267944,5.316947741010863,4.739286378072025,0.0
49.00052241355083,5.316774173066323,4.737594160044448,0.0
49.10052442283372,5.316600957262996,4.735905693047796,0.0
49.20052643211661,5.316428092205164,4.734220961198192,0.0
49.3005284413995,5.316255576505407,4.732539948711084,0.0
49.40053045068239,5.316083408784541,4.73086263990042,0.0
49.50053245996528,5.31591158767155,4.729189019177831,0.0
49.60053446924817,5.315740111803521,4.727519071051822,0.0
49.700536478531056,5.315568979825581,4.725852780126992,0.0
49.800538487813945,5.315398190390835,4.7241901311032235,0.0
49.900540497096834,5.3152277421603005,4.722531108774936,0.0
50.00054250637972,5.315057633802848,4.720875698030273,0.0
50.10054451566261,5.314887863995138,4.7192238838503755,0.0
50.2005465249455,5.314718431421562,4.7175756513086,0.0
50.30054853422839,5.314549334774179,4.715930985569789,0.0
50.40055054351128,5.314380572752658,4.714289871889507,0.0
50.50055255279417,5.314212144064219,4.712652295613329,0.0
50.60055456207706,5.3140440474235735,4.711018242176099,0.0
50.70055657135995,5.313876281552869,4.709387697101225,0.0
50.800558580642836,5.313708845181627,4.707760645999959,0.0
50.900560589925725,5.31354173704669,4.706137074570681,0.0
51.000562599208614,5.313374955892165,4.704516968598229,0.0
51.1005646084915,5.313208500469366,4.702900313953187,0.0
51.20056661777439,5.313042369536759,4.7012870965912015,0.0
51.30056862705728,5.312876561859908,4.699677302552317,0.0
51.40057063634017,5.312711076211421,4.6980709179602895,0.0
51.50057264562306,5.312545911370898,4.696467929021944,0.0
51.60057465490595,5.312381066124872,4.694868322026495,0.0
51.70057666418884,5.312216539266763,4.693272083344906,0.0
51.800578673471726,5.312052329596823,4.691679199429254,0.0
51.900580682754615,5.311888435922084,4.690089656812072,0.0
52.000582692037504,5.311724857056308,4.688503442105733,0.0
52.10058470132039,5.311561591819934,4.686920542001818,0.0
52.20058671060328,5.311398639040031,4.685340943270495,0.0
52.30058871988617,5.311235997550247,4.683764632759907,0.0
52.40059072916906,5.311073666190759,4.682191597395573,0.0
52.50059273845195,5.3109116438082244,4.680621824179768,0.0
52.60059474773484,5.310749929255733,4.679055300190944,0.0
52.70059675701773,5.31058852139276,4.677492012583128,0.0
52.80059876630062,5.3104274190851175,4.675931948585353,0.0
52.900600775583506,5.310266621204907,4.674375095501059,0.0
53.000602784866395,5.310106126630473,4.672821440707539,0.0
53.100604794149284,5.30994593424636,4.67127097165535,0.0
53.20060680343217,5.309786042943262,4.669723675867779,0.0
53.30060881271506,5.309626451617979,4.668179540940251,0.0
53.40061082199795,5.309467159173375,4.666638554539812,0.0
53.50061283128084,5.3093081645183275,4.6651007044045585,0.0
53.60061484056373,5.309149466567691,4.66356597834311,0.0
53.70061684984662,5.308991064242246,4.662034364234058,0.0
53.80061885912951,5.308832956468661,4.6605058500254515,0.0
53.900620868412396,5.308675142179448,4.658980423734259,0.0
54.000622877695285,5.3085176203129185,4.65745807344586,0.0
54.100624886978174,5.308360389813144,4.655938787313512,0.0
54.20062689626106,5.308203449629913,4.654422553557852,0.0
54.30062890554395,5.308046798718688,4.652909360466383,0.0
54.40063091482684,5.3078904360405685,4.65139919639298,0.0
54.50063292410973,5.307734360562248,4.649892049757382,0.0
54.60063493339262,5.307578571255972,4.648387909044704,0.0
54.70063694267551,5.307423067099503,4.646886762804961,0.0
54.8006389519584,5.307267847076076,4.645388599652562,0.0
54.90064096124129,5.307112910174364,4.643893408265852,0.0
55.000642970524176,5.306958255388435,4.642401177386619,0.0
55.100644979807065,5.306803881717714,4.640911895819642,0.0
55.200646989089954,5.30664978816695,4.639425552432206,0.0
55.30064899837284,5.30649597374617,4.637942136153656,0.0
55.40065100765573,5.306342437470651,4.636461635974943,0.0
55.50065301693862,5.3061891783608734,4.6349840409481455,0.0
55.60065502622151,5.306036195442492,4.633509340186048,0.0
55.7006570355044,5.3058834877462955,4.632037522861686,0.0
55.80065904478729,5.305731054308171,4.630568578207901,0.0
55.90066105407018,5.305578894169068,4.629102495516904,0.0
56.000663063353066,5.305427006374965,4.627639264139855,0.0
56.100665072635955,5.305275389976832,4.626178873486419,0.0
56.200667081918844,5.305124044030595,4.624721313024346,0.0
56.30066909120173,5.304972967597105,4.62326657227905,0.0
56.40067110048462,5.304822159742099,4.621814640833199,0.0
56.50067310976751,5.304671619536172,4.620365508326285,0.0
56.6006751190504,5.304521346054736,4.618919164454233,0.0
56.70067712833329,5.304371338377995,4.617475598968981,0.0
56.80067913761618,5.304221595590902,4.616034801678074,0.0
56.90068114689907,5.304072116783137,4.614596762444288,0.0
57.00068315618196,5.303922901049066,4.613161471185209,0.0
57.100685165464846,5.303773947487712,4.611728917872852,0.0
