Time,Mass,Radius,Lx
23.0,5.596940043010154,6.41,1.44e+30
23.1,5.589922996140006,6.378401711919711,1.4125817530701226e+30
23.200000000000003,5.583139119642251,6.347600403559925,1.385800636098691e+30
23.300000000000004,5.576578105127245,6.317569574193609,1.3596391925956558e+30
23.400000000000006,5.570230204971358,6.288283753826155,1.3340805163776613e+30
23.500000000000007,5.564086196840673,6.25971846171751,1.30910823196864e+30
23.60000000000001,5.558137350715433,6.231850166181113,1.284706475777958e+30
23.70000000000001,5.552375398226043,6.204656245698372,1.2608598780221267e+30
23.80000000000001,5.546792504126215,6.178114951371436,1.2375535453577334e+30
23.900000000000013,5.541381239742418,6.152205370723449,1.214773044194771e+30
24.000000000000014,5.536134558251397,6.1269073928444815,1.1925043846610063e+30
24.100000000000016,5.531045771649131,6.10220167487223,1.1707340051894066e+30
24.200000000000017,5.526108529285325,6.078069609789242,1.1494487577019633e+30
24.30000000000002,5.521316797847364,6.0544932955125415,1.1286358933644884e+30
24.40000000000002,5.516664842686792,6.031455505246848,1.1082830488881485e+30
24.50000000000002,5.512147210389703,6.008939659069057,1.0883782333546191e+30
24.600000000000023,5.50775871250015,5.986929796708843,1.0689098155428151e+30
24.700000000000024,5.503494410312759,5.965410551488349,1.0498665117361571e+30
24.800000000000026,5.499349600657218,5.94436712538255,1.0312373739903074e+30
24.900000000000027,5.495319802603348,5.9237852651610865,1.0130117788422134e+30
25.00000000000003,5.491400745020914,5.903651239571925,9.95179416442176e+29
25.10000000000003,5.487588354933432,5.883951817527205,9.777302800914791e+29
25.20000000000003,5.4838787466098635,5.864674247251903,9.606546561689103e+29
25.300000000000033,5.480268211342382,5.845806236356379,9.439431144302457e+29
25.400000000000034,5.476753207862319,5.827335932794643,9.275864986654858e+29
25.500000000000036,5.473330353350016,5.809251906670903,9.115759176993086e+29
25.600000000000037,5.469996414997664,5.791543132858038,8.959027367208453e+29
25.70000000000004,5.466748302087243,5.774198974392565,8.805585689295052e+29
25.80000000000004,5.463583058548514,5.757209166611814,8.655352674841538e+29
25.90000000000004,5.4604978559646185,5.740563802000226,8.508249177435089e+29
26.000000000000043,5.457489986995212,5.724253315712762,8.364198297861478e+29
26.100000000000044,5.454556859189291,5.708268471744711,8.223125311990258e+29
26.200000000000045,5.451695989161868,5.692600349718269,8.084957601238814e+29
26.300000000000047,5.448904997110562,5.677240332257579,7.949624585513733e+29
26.40000000000005,5.446181601649855,5.662180092924952,7.817057658532175e+29
26.50000000000005,5.443523614942403,5.647411584692248,7.687190125430221e+29
26.60000000000005,5.440928938108215,5.632927028922488,7.559957142569058e+29
26.700000000000053,5.43839555689392,5.618718904837866,7.435295659453717e+29
26.800000000000054,5.435921537585547,5.604779939451394,7.313144362682652e+29
26.900000000000055,5.433505023149429,5.591103097940438,7.193443621849894e+29
27.000000000000057,5.431144229586923,5.577681574441479,7.076135437324867e+29
27.10000000000006,5.428837442489589,5.564508783246245,6.961163389838004e+29
27.20000000000006,5.426583013782437,5.551578350380451,6.848472591803389e+29
27.30000000000006,5.424379358643653,5.538884105547162,6.738009640312432e+29
27.400000000000063,5.42222495259003,5.526420074417695,6.629722571735397e+29
27.500000000000064,5.420118328718058,5.514180471253798,6.52356081787015e+29
27.600000000000065,5.418058075091268,5.502159691845579,6.419475163580026e+29
27.700000000000067,5.4160428322651,5.490352306750474,6.317417705865079e+29
27.800000000000068,5.414071290941101,5.478753054819204,6.217341814313283e+29
27.90000000000007,5.412142189742821,5.467356836995382,6.119202092880374e+29
28.00000000000007,5.410254313106267,5.4561587103760525,6.022954342949171e+29
28.100000000000072,5.40840648927825,5.445153882521122,5.92855552762116e+29
28.200000000000074,5.406597588416358,5.434337706000118,5.8359637371950265e+29
28.300000000000075,5.404826520784736,5.423705673165421,5.745138155788666e+29
28.400000000000077,5.403092235040193,5.4132534111415325,5.656039029062926e+29
28.500000000000078,5.401393716603505,5.402976677020493,5.5686276330069825e+29
28.60000000000008,5.399729986111133,5.39287135325406,5.48286624374689e+29
28.70000000000008,5.39810009794283,5.382933443233682,5.398718108340313e+29
28.800000000000082,5.396503138820939,5.373159067049762,5.31614741652195e+29
28.900000000000084,5.394938226477406,5.363544457422117,5.235119273365533e+29
29.000000000000085,5.393404508384809,5.354085955793941,5.155599672829633e+29
29.100000000000087,5.3919011605478895,5.344780008581914,5.077555472155774e+29
29.200000000000088,5.390427386352335,5.335623163575511,5.000954367088586e+29
29.30000000000009,5.388982415467713,5.326612066478868,4.925764867888905e+29
29.40000000000009,5.387565502801673,5.317743457588868,4.851956276111862e+29
29.500000000000092,5.386175927502683,5.309014168603481,4.779498662123042e+29
29.600000000000094,5.384812992008751,5.300421119554551,4.708362843326878e+29
29.700000000000095,5.383476021139708,5.291961315859709,4.638520363082405e+29
29.800000000000097,5.3821643612307914,5.283631845488069,4.5699434702824336e+29
29.900000000000098,5.380877379305391,5.275429876234899,4.50260509957317e+29
30.0000000000001,5.379614462284927,5.267352653100463,4.436478852192091e+29
30.1000000000001,5.378375016233993,5.259397495768635,4.371538977402825e+29
30.200000000000102,5.377158465638936,5.251561796180907,4.30776035450648e+29
30.300000000000104,5.375964252718212,5.243843016201819,4.245118475409742e+29
30.400000000000105,5.374791836762915,5.236238685371884,4.183589427730693e+29
30.500000000000107,5.373640693505965,5.228746398744269,4.123149878424109e+29
30.600000000000108,5.372510314518553,5.221363814801801,4.063777057908598e+29
30.70000000000011,5.37140020663249,5.214088653450851,4.005448744678633e+29
30.80000000000011,5.3703098913871905,5.2069186940889,3.948143250385149e+29
30.900000000000112,5.369238904500094,5.1998517737427665,3.891839405368979e+29
31.000000000000114,5.368186795359395,5.1928857852745125,3.8365165446319616e+29
31.100000000000115,5.3671531265380095,5.186018675652315,3.7821544942311354e+29
31.200000000000117,5.366137473327754,5.179248444283573,3.728733558081952e+29
31.300000000000118,5.365139423292789,5.172573141407748,3.6762345051569396e+29
31.40000000000012,5.364158575841411,5.165990866546493,3.624638557066766e+29
31.50000000000012,5.3631945418153295,5.159499767008789,3.573927376011097e+29
31.600000000000122,5.362246943095627,5.153098036448826,3.5240830530871135e+29
31.700000000000124,5.361315412224609,5.146783913474552,3.475088096943985e+29
31.800000000000125,5.360399592042828,5.140555680304865,3.42692542277201e+29
31.900000000000126,5.359499135340574,5.13441166147349,3.379578341615529e+29
32.00000000000013,5.358613704523181,5.128350222577738,3.333030549999133e+29
32.10000000000013,5.357742971289524,5.122369769070362,3.2872661198570286e+29
32.20000000000013,5.356886616323101,5.116468745092801,3.2422694887557824e+29
32.30000000000013,5.356044328995149,5.110645632348257,3.1980254504010435e+29
32.400000000000134,5.355215807079251,5.10489894901297,3.1545191454191315e+29
32.500000000000135,5.354400756476931,5.099227248684331,3.111736052404718e+29
32.600000000000136,5.353598890953747,5.09362911936431,3.06966197922614e+29
32.70000000000014,5.352809931885427,5.088103182476922,3.0282830545801598e+29
32.80000000000014,5.352033608013608,5.082648091918391,2.9875857197882884e+29
32.90000000000014,5.3512696552107615,5.0772625331387875,2.9475567208270458e+29
33.00000000000014,5.350517816253919,5.071945222253968,2.90818310058481e+29
33.10000000000014,5.349777840606803,5.066694905186642,2.869452191338141e+29
33.200000000000145,5.34904948421003,5.0615103568355195,2.8313516074407352e+29
33.300000000000146,5.348332509279016,5.056390380271453,2.7938692382183634e+29
33.40000000000015,5.347626684109284,5.051333805959597,2.756993241063412e+29
33.50000000000015,5.346931782888849,5.046339491006632,2.7207120347228306e+29
33.60000000000015,5.346247585517396,5.041406318432118,2.68501429277352e+29
33.70000000000015,5.3455738774319554,5.0365331964630755,2.6498889372793843e+29
33.80000000000015,5.344910449438824,5.031719057851015,2.6153251326244682e+29
33.900000000000155,5.344257097551467,5.026962859210524,2.581312279516798e+29
34.000000000000156,5.3436136228341535,5.022263580378672,2.5478400091576984e+29
34.10000000000016,5.342979831251105,5.017620223794507,2.5148981775715695e+29
34.20000000000016,5.342355533520921,5.013031813897868,2.4824768600912352e+29
34.30000000000016,5.341740544976083,5.00849739654689,2.4505663459941693e+29
34.40000000000016,5.341134685427317,5.00401603845347,2.419157133285039e+29
34.50000000000016,5.340537779032648,4.999586826636158,2.3882399236201696e+29
34.600000000000165,5.339949654170926,4.995208867889733,2.3578056173696678e+29
34.700000000000166,5.339370143319684,4.990881288270991,2.3278453088130893e+29
34.80000000000017,5.338799082937128,4.986603232600133,2.2983502814646652e+29
34.90000000000017,5.338236313348123,4.982373863977212,2.2693120035242384e+29
35.00000000000017,5.337681678634,4.978192363313136,2.240722123450176e+29
35.10000000000017,5.337135026526049,4.974057928874685,2.212572465650653e+29
35.20000000000017,5.336596208302557,4.969969775843133,2.184855026289819e+29
35.300000000000175,5.336065078689247,4.965927135885963,2.1575619692054638e+29
35.400000000000176,5.335541495762997,4.961929256741214,2.1306856219349216e+29
35.50000000000018,5.335025320858714,4.9579754018140925,2.104218471846036e+29
35.60000000000018,5.334516418479238,4.954064849785384,2.078153162370136e+29
35.70000000000018,5.334014656208175,4.950196894231295,2.0524824893340436e+29
35.80000000000018,5.333519904625535,4.946370843254334,2.027199397388255e+29
35.90000000000018,5.333032037226088,4.94258601912488,2.0022969765285e+29
36.000000000000185,5.33255093034032,4.938841757933059,1.9777684587079996e+29
36.100000000000186,5.332076463057906,4.935137409250606,1.9536072145378023e+29
36.20000000000019,5.331608517153607,4.931472335802402,1.9298067500726864e+29
36.30000000000019,5.331146977015503,4.927845913147334,1.906360703680164e+29
36.40000000000019,5.330691729575463,4.924257529368193,1.8832628429902328e+29
36.50000000000019,5.3302426642418,4.920706584770322,1.8605070619235703e+29
36.60000000000019,5.329799672834006,4.917192491588727,1.8380873777959452e+29
36.700000000000195,5.329362649519505,4.913714673703375,1.8159979284966936e+29
36.800000000000196,5.328931490752357,4.910272566362432,1.7942329697391666e+29
36.9000000000002,5.328506095213833,4.906865615913162,1.7727868723811276e+29
37.0000000000002,5.3280863637548,4.903493279540262,1.7516541198131332e+29
37.1000000000002,5.327672199339857,4.900155025011416,1.7308293054129982e+29
37.2000000000002,5.3272635069931535,4.8968503304297855,1.7103071300644985e+29
37.3000000000002,5.32686019374584,4.893578683993289,1.6900823997385207e+29
37.400000000000205,5.326462168585087,4.8903395837604045,1.6701500231349345e+29
37.500000000000206,5.326069342404622,4.887132537422308,1.6505050093834927e+29
37.60000000000021,5.325681627956739,4.883957062081174,1.6311424658021404e+29
37.70000000000021,5.325298939805712,4.88081268403441,1.612057595711147e+29
37.80000000000021,5.324921194282585,4.877698938564674,1.5932456963015284e+29
37.90000000000021,5.324548309441288,4.874615369735478,1.5747021565562694e+29
38.00000000000021,5.324180205016018,4.8715615301922295,1.556422455222909e+29
38.100000000000215,5.323816802379866,4.868536980968514,1.5384021588360853e+29
38.200000000000216,5.323458024504638,4.865541291297497,1.52063691978868e+29
38.30000000000022,5.323103795921817,4.862574038428247,1.5031224744502482e+29
38.40000000000022,5.322754042684661,4.859634807446893,1.485854641331455e+29
38.50000000000022,5.322408692331364,4.856723191102403,1.4688293192932742e+29
38.60000000000022,5.322067673849272,4.853838789636893,1.4520424857997484e+29
38.70000000000022,5.321730917640103,4.850981210620327,1.43549019521314e+29
38.800000000000225,5.321398355486149,4.848150068789455,1.4191685771303396e+29
38.900000000000226,5.321069920517421,4.845344985890884,1.4030738347594279e+29
39.00000000000023,5.320745547179712,4.842565590528167,1.3872022433353251e+29
39.10000000000023,5.320425171203545,4.83981151801277,1.3715501485734876e+29
39.20000000000023,5.32010872957398,4.837082410218812,1.356113965160644e+29
39.30000000000023,5.319796160501252,4.834377915441479,1.3408901752815921e+29
39.40000000000023,5.319487403392211,4.831697688259013,1.3258753271811067e+29
39.500000000000234,5.319182398822546,4.829041389398128,1.3110660337600346e+29
39.600000000000236,5.318881088509763,4.826408685602823,1.2964589712046793e+29
39.70000000000024,5.318583415286891,4.823799249506434,1.2820508776486055e+29
39.80000000000024,5.318289323076899,4.821212759506853,1.2678385518660196e+29
39.90000000000024,5.317998756867798,4.818648899644851,1.2538188519958971e+29
40.00000000000024,5.317711662688417,4.816107359485388,1.239988694296068e+29
40.10000000000024,5.317427987584812,4.8135878340018206,1.2263450519264778e+29
40.200000000000244,5.317147679597305,4.811090023462945,1.2128849537608701e+29
40.300000000000246,5.3168706877381355,4.808613633322789,1.1996054832261632e+29
40.40000000000025,5.316596961969692,4.806158374113095,1.1865037771688052e+29
40.50000000000025,5.316326453183318,4.803723961338369,1.1735770247474133e+29
40.60000000000025,5.316059113178668,4.801310115373473,1.160822466351032e+29
40.70000000000025,5.3157948946436075,4.798916561363692,1.1482373925423483e+29
40.80000000000025,5.3155337511346215,4.7965430291271485,1.1358191430252354e+29
40.900000000000254,5.31527563705774,4.794189253059594,1.1235651056360012e+29
41.000000000000256,5.315020507649947,4.791854972041419,1.1114727153577464e+29
41.10000000000026,5.314768318961067,4.789539929346889,1.099539453357243e+29
41.20000000000026,5.3145190278361145,4.787243872555499,1.0877628460437703e+29
41.30000000000026,5.314272591898088,4.7849665534654395,1.076140464149352e+29
41.40000000000026,5.314028969531202,4.782707728009061,1.0646699218298593e+29
41.50000000000026,5.313788119864545,4.780467156170323,1.0533488757864595e+29
41.600000000000264,5.313550002756138,4.778244601904182,1.0421750244068966e+29
41.700000000000266,5.313314578777403,4.776039833057807,1.031146106926117e+29
41.80000000000027,5.313081809198011,4.77385262129365,1.020259902605753e+29
41.90000000000027,5.312851655971108,4.771682742014274,1.0095142299320018e+29
42.00000000000027,5.312624081718905,4.7695299742889015,9.989069458314402e+28
42.10000000000027,5.312399049718629,4.767394100781662,9.88435944904337e+28
42.20000000000027,5.312176523888812,4.765274907681452,9.78099158675029e+28
42.300000000000274,5.311956468775916,4.763172184633394,9.678945548589423e+28
42.400000000000276,5.311738849541288,4.761085724671865,9.578201366458537e+28
42.50000000000028,5.311523631948429,4.759015324155013,9.478739419989895e+28
42.60000000000028,5.311310782350569,4.756960782700754,9.38054042969582e+28
42.70000000000028,5.311100267678547,4.754921903124217,9.283585450265034e+28
42.80000000000028,5.310892055428975,4.752898491376568,9.187855864006115e+28
42.90000000000028,5.310686113652692,4.750890356485202,9.093333374434529e+28
43.000000000000284,5.3104824109434885,4.7488973104952805,8.999999999999978e+28
43.100000000000286,5.310280062601069,4.746914307562827,8.990336161802469e+28
43.20000000000029,5.31007820307568,4.744936409010965,8.980705060147687e+28
43.30000000000029,5.309876830099337,4.7429635899987534,8.971106508744807e+28
43.40000000000029,5.309675941419707,4.740995825863009,8.96154032279018e+28
43.50000000000029,5.309475534799962,4.739033092116617,8.952006318952068e+28
43.60000000000029,5.3092756080186385,4.737075364446894,8.942504315355551e+28
43.700000000000294,5.3090761588695,4.735122618713938,8.933034131567668e+28
43.800000000000296,5.308877185161393,4.733174830949002,8.9235955885827e+28
43.9000000000003,5.308678684718114,4.731231977352906,8.914188508807653e+28
44.0000000000003,5.308480655378274,4.729294034294453,8.904812716047927e+28
44.1000000000003,5.308283094995161,4.727360978308852,8.895468035493162e+28
44.2000000000003,5.308086001436614,4.725432786096193,8.886154293703235e+28
44.3000000000003,5.307889372584884,4.7235094345199045,8.87687131859447e+28
44.400000000000304,5.307693206336513,4.721590900605249,8.867618939425981e+28
44.500000000000306,5.307497500602197,4.7196771615378195,8.85839698678621e+28
44.60000000000031,5.307302253306668,4.717768194662087,8.849205292579608e+28
44.70000000000031,5.307107462388563,4.715863977479913,8.840043690013494e+28
44.80000000000031,5.306913125800304,4.713964487649136,8.830912013585074e+28
44.90000000000031,5.306719241507972,4.712069702982115,8.821810099068604e+28
45.00000000000031,5.306525807491188,4.710179601444345,8.812737783502725e+28
45.100000000000314,5.306332821742995,4.708294161153052,8.803694905177937e+28
45.200000000000315,5.306140282269735,4.706413360375818,8.79468130362425e+28
45.30000000000032,5.3059481870909355,4.7045371775292075,8.785696819598939e+28
45.40000000000032,5.305756534239194,4.702665591177443,8.776741295074504e+28
45.50000000000032,5.30556532176006,4.700798580031043,8.76781457322672e+28
45.60000000000032,5.305374547711927,4.6989361229455415,8.758916498422867e+28
45.70000000000032,5.305184210165915,4.697078198920151,8.750046916210082e+28
45.800000000000324,5.304994307205762,4.695224787096491,8.741205673303864e+28
45.900000000000325,5.304804836927715,4.693375866757311,8.732392617576704e+28
46.00000000000033,5.304615797440423,4.691531417325239,8.723607598046851e+28
46.10000000000033,5.304427186864825,4.689691418361526,8.71485046486722e+28
46.20000000000033,5.304239003334048,4.687855849564809,8.706121069314423e+28
46.30000000000033,5.304051244993299,4.68602469076991,8.697419263777931e+28
46.40000000000033,5.303863909999765,4.684197921946621,8.688744901749371e+28
46.500000000000334,5.3036769965225075,4.6823755231985125,8.680097837811936e+28
46.600000000000335,5.303490502742361,4.680557474761755,8.671477927629925e+28
46.70000000000034,5.303304426851833,4.678743757003956,8.662885027938416e+28
46.80000000000034,5.303118767055004,4.676934350423002,8.65431899653304e+28
46.90000000000034,5.3029335215674305,4.675129235645924,8.64577969225989e+28
47.00000000000034,5.302748688616046,4.673328393427768,8.637266975005533e+28
47.10000000000034,5.302564266439067,4.6715318046504795,8.628780705687162e+28
47.200000000000344,5.302380253285892,4.669739450321794,8.62032074624283e+28
47.300000000000345,5.3021966474170155,4.667951311574152,8.611886959621824e+28
47.40000000000035,5.302013447103928,4.666167369663617,8.603479209775132e+28
47.50000000000035,5.301830650629025,4.664387605968802,8.595097361646034e+28
47.60000000000035,5.30164825628552,4.662612001989829,8.58674128116079e+28
47.70000000000035,5.301466262377348,4.6608405393472605,8.578410835219437e+28
47.80000000000035,5.301284667219079,4.6590731997810835,8.570105891686697e+28
47.900000000000354,5.301103469135829,4.657309965149668,8.561826319382984e+28
48.000000000000355,5.300922666463174,4.655550817428782,8.553571988075509e+28
48.10000000000036,5.300742257547061,4.65379573871056,8.545342768469496e+28
48.20000000000036,5.30056224074372,4.652044711202525,8.537138532199496e+28
48.30000000000036,5.300382614419587,4.650297717226613,8.528959151820784e+28
48.40000000000036,5.300203376951211,4.648554739218195,8.52080450080088e+28
48.50000000000036,5.300024526725177,4.646815759725117,8.512674453511142e+28
48.600000000000364,5.29984606213802,4.645080761406758,8.50456888521846e+28
48.700000000000365,5.299667981596144,4.643349727033073,8.496487672077052e+28
48.80000000000037,5.299490283515746,4.641622639483684,8.488430691120346e+28
48.90000000000037,5.299312966322726,4.639899481746939,8.480397820252943e+28
49.00000000000037,5.2991360284526206,4.638180236919019,8.472388938242688e+28
