Time,Mass,Radius,Lx
23.0,5.596940043010154,6.41,1.44e+30
23.1,5.589860750093356,6.378141212466602,1.44e+30
23.200000000000003,5.5828957903639695,6.346574860147019,1.44e+30
23.300000000000004,5.576042929267044,6.315298313787579,1.44e+30
23.400000000000006,5.56929997786768,6.284308930605643,1.44e+30
23.500000000000007,5.562664792098226,6.253604056614083,1.44e+30
23.60000000000001,5.5561352720021295,6.223181028835798,1.44e+30
23.70000000000001,5.549709360975801,6.193037177411533,1.44e+30
23.80000000000001,5.5433850450097255,6.163169827604307,1.44e+30
23.900000000000013,5.537160351929987,6.133576301703714,1.44e+30
24.000000000000014,5.53103335064128,6.104253920833388,1.44e+30
24.100000000000016,5.525002150372398,6.075200006664849,1.44e+30
24.200000000000017,5.519064899925094,6.046411883040934,1.44e+30
24.30000000000002,5.513219786927181,6.017886877512042,1.44e+30
24.40000000000002,5.507465037090606,5.989622322788243,1.44e+30
24.50000000000002,5.50179891347522,5.961615558110362,1.44e+30
24.600000000000023,5.4962197157588735,5.933863930543099,1.44e+30
24.700000000000024,5.490725779514417,5.906364796193078,1.44e+30
24.800000000000026,5.485315475494132,5.879115521354793,1.44e+30
24.900000000000027,5.479987208922062,5.85211348358726,1.44e+30
25.00000000000003,5.474739418794663,5.8253560727241265,1.44e+30
25.10000000000003,5.469570577190156,5.798840691820013,1.44e+30
25.20000000000003,5.4644791885869095,5.772564758035665,1.44e+30
25.300000000000033,5.459463789191142,5.746525703464457,1.44e+30
25.400000000000034,5.454522946274208,5.72072097590282,1.44e+30
25.500000000000036,5.449655257519679,5.695148039566968,1.44e+30
25.600000000000037,5.444859350380408,5.669804375758233,1.44e+30
25.70000000000004,5.440133881445733,5.6446874834793395,1.44e+30
25.80000000000004,5.435477535818949,5.619794880003827,1.44e+30
25.90000000000004,5.430889026505154,5.595124101400689,1.44e+30
26.000000000000043,5.426367093809529,5.5706727030163385,1.44e+30
26.100000000000044,5.421910504746125,5.546438259915888,1.44e+30
26.200000000000045,5.417518052457181,5.522418367285642,1.44e+30
26.300000000000047,5.413188555642983,5.498610640798665,1.44e+30
26.40000000000005,5.408920858002268,5.475012716945211,1.44e+30
26.50000000000005,5.404713827683147,5.451622253329748,1.44e+30
26.60000000000005,5.400566356744515,5.428436928936203,1.44e+30
26.700000000000053,5.396477360627893,5.4054544443630475,1.44e+30
26.800000000000054,5.392445777639643,5.38267252202974,1.44e+30
26.900000000000055,5.388470568443488,5.360088906355999,1.44e+30
27.000000000000057,5.384550715563245,5.33770136391534,1.44e+30
27.10000000000006,5.380685222895683,5.315507683564187,1.44e+30
27.20000000000006,5.376873115233403,5.293505676547938,1.44e+30
27.30000000000006,5.373113437797628,5.271693176585119,1.44e+30
27.400000000000063,5.369405255780799,5.25006803993095,1.44e+30
27.500000000000064,5.365747653898832,5.228628145421364,1.44e+30
27.600000000000065,5.362139735952941,5.207371394498655,1.44e+30
27.700000000000067,5.358580624400863,5.186295711219728,1.44e+30
27.800000000000068,5.355069459937373,5.165399042248046,1.44e+30
27.90000000000007,5.351605401083933,5.144679356830149,1.44e+30
28.00000000000007,5.348187623787349,5.124134646757716,1.44e+30
28.100000000000072,5.3448153210272755,5.10376292631603,1.44e+30
28.200000000000074,5.34148770243243,5.083562232219693,1.44e+30
28.300000000000075,5.338203993905368,5.063530623536355,1.44e+30
28.400000000000077,5.334963437255666,5.043666181599287,1.44e+30
28.500000000000078,5.331765289841365,5.023967009909461,1.44e+30
28.60000000000008,5.328608824218524,5.004431234027853,1.44e+30
28.70000000000008,5.325493327798725,4.985057001458658,1.44e+30
28.800000000000082,5.322418102514389,4.965842481523973,1.44e+30
28.900000000000084,5.319382464491747,4.946785865230667,1.44e+30
29.000000000000085,5.316385743731313,4.927885365129863,1.44e+30
29.100000000000087,5.313427283795711,4.909139215169696,1.44e+30
29.200000000000088,5.310506441504711,4.8905456705417905,1.44e+30
29.30000000000009,5.307622586637322,4.8721030075219875,1.44e+30
29.40000000000009,5.3047751016407965,4.853809523305768,1.44e+30
29.500000000000092,5.301963381346403,4.835663535838816,1.44e+30
29.600000000000094,5.299186832691819,4.81766338364314,1.44e+30
29.700000000000095,5.296444874450007,4.7998074256391545,1.44e+30
29.800000000000097,5.2937369369644305,4.782094040964123,1.44e+30
29.900000000000098,5.291062461890475,4.76452162878726,1.44e+30
30.0000000000001,5.288420901942931,4.747088608121899,1.44e+30
30.1000000000001,5.28581172064941,4.729793417635001,1.44e+30
30.200000000000102,5.28323439210956,4.712634515454328,1.44e+30
30.300000000000104,5.2806884007599475,4.695610378973562,1.44e+30
30.400000000000105,5.278173241144481,4.678719504655657,1.44e+30
30.500000000000107,5.2756884176902465,4.661960407834645,1.44e+30
30.600000000000108,5.273233444488631,4.645331622516163,1.44e+30
30.70000000000011,5.270807845081617,4.6288317011769555,1.44e+30
30.80000000000011,5.268411152253119,4.612459214563499,1.44e+30
30.900000000000112,5.266042907825259,4.596212751490032,1.44e+30
31.000000000000114,5.263702662459445,4.580090918636107,1.44e+30
31.100000000000115,5.26138997546216,4.5640923403438975,1.44e+30
31.200000000000117,5.259104414595339,4.548215658415418,1.44e+30
31.300000000000118,5.256845555891226,4.532459531909782,1.44e+30
31.40000000000012,5.25461298347161,4.516822636940715,1.44e+30
31.50000000000012,5.252406289371331,4.501303666474384,1.44e+30
31.600000000000122,5.2502250733659555,4.485901330127736,1.44e+30
31.700000000000124,5.248068942803517,4.470614353967418,1.44e+30
31.800000000000125,5.245937512440238,4.455441480309466,1.44e+30
31.900000000000126,5.243830404280118,4.440381467519769,1.44e+30
32.00000000000013,5.241747247418307,4.425433089815501,1.44e+30
32.10000000000013,5.239687677888177,4.4105951370675704,1.44e+30
32.20000000000013,5.237651338511977,4.3958664146041375,1.44e+30
32.30000000000013,5.235637878755027,4.381245743015398,1.44e+30
32.400000000000134,5.233646954583314,4.366731957959544,1.44e+30
32.500000000000135,5.231678228324457,4.35232390997013,1.44e+30
32.600000000000136,5.229731368531914,4.338020464264762,1.44e+30
32.70000000000014,5.22780604985239,4.323820500555324,1.44e+30
32.80000000000014,5.22590195289634,4.3097229128596215,1.44e+30
32.90000000000014,5.2240187641115075,4.29572660931466,1.44e+30
33.00000000000014,5.222156175659413,4.281830511991463,1.44e+30
33.10000000000014,5.220313885294734,4.268033556711581,1.44e+30
33.200000000000145,5.218491596247488,4.2543346928652275,1.44e+30
33.300000000000146,5.216689017107965,4.240732883231178,1.44e+30
33.40000000000015,5.214905861714338,4.227227103798382,1.44e+30
33.50000000000015,5.213141849042874,4.2138163435893325,1.44e+30
33.60000000000015,5.211396703100702,4.20049960448526,1.44e+30
33.70000000000015,5.209670152821059,4.187275901053104,1.44e+30
33.80000000000015,5.207961931960962,4.174144260374357,1.44e+30
33.900000000000155,5.206271779001236,4.161103721875696,1.44e+30
34.000000000000156,5.2045994370488575,4.148153337161533,1.44e+30
34.10000000000016,5.202944653741537,4.1352921698483875,1.44e+30
34.20000000000016,5.201307181154501,4.122519295401176,1.44e+30
34.30000000000016,5.1996867757094085,4.109833800971341,1.44e+30
34.40000000000016,5.198083198085358,4.097234785236912,1.44e+30
34.50000000000016,5.19649621313193,4.084721358244439,1.44e+30
34.600000000000165,5.194925589784208,4.072292641252801,1.44e+30
34.700000000000166,5.19337110097975,4.059947766578952,1.44e+30
34.80000000000017,5.191832523577436,4.047685877445511,1.44e+30
34.90000000000017,5.190309638278167,4.035506127830266,1.44e+30
35.00000000000017,5.188802229547358,4.0234076823175515,1.44e+30
35.10000000000017,5.187310085539187,4.011389715951511,1.44e+30
35.20000000000017,5.185832998022557,3.9994514140912107,1.44e+30
35.300000000000175,5.18437076230872,3.987591972267636,1.44e+30
35.400000000000176,5.18292317718054,3.9758105960425203,1.44e+30
35.50000000000018,5.181490044823342,3.9641065008690544,1.44e+30
35.60000000000018,5.180071170757302,3.9524789119543775,1.44e+30
35.70000000000018,5.178666363771366,3.940927064123919,1.44e+30
35.80000000000018,5.177275435858629,3.9294502016875557,1.44e+30
35.90000000000018,5.175898202153166,3.9180475783075313,1.44e+30
36.000000000000185,5.174534480868264,3.906718456868205,1.44e+30
36.100000000000186,5.173184093236019,3.895462109347515,1.44e+30
36.20000000000019,5.171846863448286,3.88427781669026,1.44e+30
36.30000000000019,5.170522618598917,3.8731648686830455,1.44e+30
36.40000000000019,5.169211188627288,3.8621225638310146,1.44e+30
36.50000000000019,5.167912406263059,3.8511502092362537,1.44e+30
36.60000000000019,5.1666261069721555,3.840247120477903,1.44e+30
36.700000000000195,5.165352128903929,3.8294126214939337,1.44e+30
36.800000000000196,5.164090312839473,3.8186460444645727,1.44e+30
36.9000000000002,5.162840502141076,3.8079467296974063,1.44e+30
37.0000000000002,5.161602542702765,3.7973140255140665,1.44e+30
37.1000000000002,5.160376282901926,3.786747288138529,1.44e+30
37.2000000000002,5.159161573551984,3.776245881587023,1.44e+30
37.3000000000002,5.157958267856093,3.7658091775594955,1.44e+30
37.400000000000205,5.156766221361837,3.7554365553326288,1.44e+30
37.500000000000206,5.1555852919169,3.7451274016543823,1.44e+30
37.60000000000021,5.154415339625695,3.7348811106400706,1.44e+30
37.70000000000021,5.153256226806919,3.724697083669933,1.44e+30
37.80000000000021,5.152107817952018,3.7145747292881683,1.44e+30
37.90000000000021,5.150969979684542,3.7045134631034573,1.44e+30
38.00000000000021,5.149842580720362,3.6945127076909094,1.44e+30
38.100000000000215,5.148725491828732,3.6845718924954207,1.44e+30
38.200000000000216,5.147618585794186,3.6746904537364955,1.44e+30
38.30000000000022,5.146521737379229,3.6648678343143786,1.44e+30
38.40000000000022,5.145434823287825,3.655103483717632,1.44e+30
38.50000000000022,5.144357722129655,3.6453968579320204,1.44e+30
38.60000000000022,5.143290314385115,3.635747419350725,1.44e+30
38.70000000000022,5.142232482371061,3.6261546366859103,1.44e+30
38.800000000000225,5.141184110207269,3.6166179848815805,1.44e+30
38.900000000000226,5.140145083783586,3.607136945027685,1.44e+30
39.00000000000023,5.139115290727774,3.59771100427552,1.44e+30
39.10000000000023,5.13809462037402,3.588339655754367,1.44e+30
39.20000000000023,5.1370829637321025,3.5790223984893808,1.44e+30
39.30000000000023,5.136080213457183,3.569758737320632,1.44e+30
39.40000000000023,5.135086263820239,3.560548182823407,1.44e+30
39.500000000000234,5.134101010679091,3.5513902512296633,1.44e+30
39.600000000000236,5.133124351450032,3.5422844643506215,1.44e+30
39.70000000000024,5.13215618508004,3.5332303495005566,1.44e+30
39.80000000000024,5.131196412019551,3.5242274394216553,1.44e+30
39.90000000000024,5.130244934195792,3.515275272210023,1.44e+30
40.00000000000024,5.1293016549866595,3.5063733912427812,1.44e+30
40.10000000000024,5.1283664791951225,3.497521345106236,1.44e+30
40.200000000000244,5.127439313024149,3.4887186875251226,1.44e+30
40.300000000000246,5.126520064052134,3.4799649772928802,1.44e+30
40.40000000000025,5.125608641208829,3.4712597782029873,1.44e+30
40.50000000000025,5.124704954751749,3.4626026589812637,1.44e+30
40.60000000000025,5.123808916243059,3.453993193219241,1.44e+30
40.70000000000025,5.122920438526916,3.4454309593084673,1.44e+30
40.80000000000025,5.122039435707273,3.4369155403758134,1.44e+30
40.900000000000254,5.121165823126116,3.4284465242197237,1.44e+30
41.000000000000256,5.120299517342138,3.420023503247406,1.44e+30
41.10000000000026,5.119440436109836,3.4116460744129755,1.44e+30
41.20000000000026,5.118588498359019,3.403313839156473,1.44e+30
41.30000000000026,5.117743624174723,3.3950264033438406,1.44e+30
41.40000000000026,5.116905734777521,3.38678337720771,1.44e+30
41.50000000000026,5.116074752504215,3.3785843752891447,1.44e+30
41.600000000000264,5.115250600788915,3.370429016380185,1.44e+30
41.700000000000266,5.114433204144481,3.3623169234672616,1.44e+30
41.80000000000027,5.113622488144326,3.354247723675442,1.44e+30
41.90000000000027,5.112818379404581,3.3462210482135135,1.44e+30
42.00000000000027,5.112020805566597,3.3382365323198333,1.44e+30
42.10000000000027,5.111229695279789,3.330293815209031,1.44e+30
42.20000000000027,5.110444978184815,3.322392540019437,1.44e+30
42.300000000000274,5.109666584897074,3.3145323537613374,1.44e+30
42.400000000000276,5.10889444699052,3.306712907265938,1.44e+30
42.50000000000028,5.108128496981798,3.2989338551351315,1.44e+30
42.60000000000028,5.107368668314664,3.291194855691951,1.44e+30
42.70000000000028,5.106614895344723,3.283495570931782,1.44e+30
42.80000000000028,5.1058671133244395,3.275835666474252,1.44e+30
42.90000000000028,5.105125258388447,3.2682148115158838,1.44e+30
43.000000000000284,5.1043892675391245,3.2606326787833657,1.44e+30
43.100000000000286,5.1036590786324565,3.2530889444875775,1.44e+30
43.20000000000029,5.10293463036415,3.245583288278223,1.44e+30
43.30000000000029,5.102215862256015,3.2381153931991564,1.44e+30
43.40000000000029,5.101502714642608,3.230684945644355,1.44e+30
43.50000000000029,5.100795128658114,3.2232916353145256,1.44e+30
43.60000000000029,5.100093046223482,3.215935155174347,1.44e+30
43.700000000000294,5.099396410033798,3.2086152014103284,1.44e+30
43.800000000000296,5.098705163545889,3.201331473389271,1.44e+30
43.9000000000003,5.098019250966162,3.1940836736173317,1.44e+30
44.0000000000003,5.097338617238668,3.186871507699691,1.44e+30
44.1000000000003,5.096663208033379,3.1796946843008054,1.44e+30
44.2000000000003,5.095992969734692,3.1725529151051983,1.44e+30
44.3000000000003,5.0953278494301335,3.1654459147788456,1.44e+30
44.400000000000304,5.0946677948992765,3.158373400931106,1.44e+30
44.500000000000306,5.094012754602861,3.1513350940772034,1.44e+30
44.60000000000031,5.093362677672112,3.1443307176012434,1.44e+30
44.70000000000031,5.092717513898248,3.1373599977197566,1.44e+30
44.80000000000031,5.092077213722184,3.130422663445751,1.44e+30
44.90000000000031,5.09144172822442,3.1235184465533,1.44e+30
45.00000000000031,5.090811009115114,3.1166470815426304,1.44e+30
45.100000000000314,5.090185008724331,3.109808305605699,1.44e+30
45.200000000000315,5.089563679992467,3.103001858592249,1.44e+30
45.30000000000032,5.0889469764608455,3.0962274829763663,1.44e+30
45.40000000000032,5.088334852262486,3.0894849238234956,1.44e+30
45.50000000000032,5.087727262113034,3.0827739287579488,1.44e+30
45.60000000000032,5.087124161301848,3.0760942479308193,1.44e+30
45.70000000000032,5.086525505683256,3.069445633988418,1.44e+30
45.800000000000324,5.085931251667957,3.06282784204108,1.44e+30
45.900000000000325,5.085341356214579,3.056240629632479,1.44e+30
46.00000000000033,5.084755776821385,3.0496837567093107,1.44e+30
46.10000000000033,5.084174471518127,3.043156985591456,1.44e+30
46.20000000000033,5.083597398858037,3.036660080942516,1.44e+30
46.30000000000033,5.083024517909968,3.0301928097407655,1.44e+30
46.40000000000033,5.082455788250663,3.023754941250554,1.44e+30
46.500000000000334,5.081891169957166,3.017346246994057,1.44e+30
46.600000000000335,5.081330623599357,3.0109665007234065,1.44e+30
46.70000000000034,5.080774110232628,3.0046154783932892,1.44e+30
46.80000000000034,5.080221591390674,2.9982929581338267,1.44e+30
46.90000000000034,5.079673029078417,2.991998720223897,1.44e+30
47.00000000000034,5.0791283857650456,2.985732547064782,1.44e+30
47.10000000000034,5.078587624377182,2.979494223154206,1.44e+30
47.200000000000344,5.0780507082921575,2.973283535060723,1.44e+30
47.300000000000345,5.077517601331412,2.967100271398451,1.44e+30
47.40000000000035,5.076988267753996,2.9609442228021443,1.44e+30
47.50000000000035,5.076462672250194,2.954815181902622,1.44e+30
47.60000000000035,5.07594077993525,2.9487129433025165,1.44e+30
47.70000000000035,5.075422556343198,2.9426373035523783,1.44e+30
47.80000000000035,5.074907967420803,2.9365880611270536,1.44e+30
47.900000000000354,5.074396979521599,2.9305650164024453,1.44e+30
48.000000000000355,5.073889559400032,2.9245679716325452,1.44e+30
48.10000000000036,5.073385674205697,2.9185967309267844,1.44e+30
48.20000000000036,5.07288529147767,2.9126511002276887,1.44e+30
48.30000000000036,5.072388379138946,2.9067308872888553,1.44e+30
48.40000000000036,5.071894905490956,2.9008359016531813,1.44e+30
48.50000000000036,5.071404839208185,2.8949659546314326,1.44e+30
48.600000000000364,5.070918149332872,2.8891208592810553,1.44e+30
48.700000000000365,5.070434805269806,2.8833004303852965,1.44e+30
48.80000000000037,5.069954776781203,2.8775044844326176,1.44e+30
48.90000000000037,5.069478033981666,2.8717328395963087,1.44e+30
49.00000000000037,5.069004547333232,2.8659853157144655,1.44e+30
49.10000000000037,5.0685342876404995,2.860261734270164,1.44e+30
49.20000000000037,5.0680672260458355,2.854561918371936,1.44e+30
49.300000000000374,5.067603334024659,2.84888569273447,1.44e+30
49.400000000000375,5.067142583380802,2.8432328836595753,1.44e+30
49.50000000000038,5.066684946241952,2.837603319017422,1.44e+30
49.60000000000038,5.066230395055159,2.8319968282279904,1.44e+30
49.70000000000038,5.065778902582423,2.826413242242765,1.44e+30
49.80000000000038,5.065330441896346,2.8208523935266783,1.44e+30
49.90000000000038,5.064884986375862,2.815314116040304,1.44e+30
50.000000000000384,5.064442509702031,2.8097982452222388,1.44e+30
50.100000000000385,5.064002985853901,2.8043046179717477,1.44e+30
50.20000000000039,5.063566389104436,2.798833072631621,1.44e+30
50.30000000000039,5.063132694016509,2.7933834489712286,1.44e+30
50.40000000000039,5.062701875438963,2.7879555881698286,1.44e+30
50.50000000000039,5.06227390850273,2.7825493328000785,1.44e+30
50.60000000000039,5.061848768617014,2.7771645268117355,1.44e+30
50.700000000000394,5.061426431465531,2.771801015515577,1.44e+30
50.800000000000395,5.061006873002814,2.766458645567524,1.44e+30
50.9000000000004,5.060590069450573,2.761137264952967,1.44e+30
51.0000000000004,5.060175997294112,2.755836722971294,1.44e+30
51.1000000000004,5.059764633278807,2.7505568702206036,1.44e+30
51.2000000000004,5.059355954406628,2.7452975585826014,1.44e+30
51.3000000000004,5.058949937932733,2.7400586412077104,1.44e+30
51.400000000000404,5.058546561362096,2.7348399725003305,1.44e+30
51.500000000000405,5.058145802446201,2.7296414081043103,1.44e+30
51.600000000000406,5.057747639179782,2.724462804888594,1.44e+30
51.70000000000041,5.057352049797617,2.7193040209330404,1.44e+30
51.80000000000041,5.056959012771368,2.7141649155144085,1.44e+30
51.90000000000041,5.056568506806468,2.7090453490925284,1.44e+30
52.00000000000041,5.056180510839065,2.7039451832966224,1.44e+30
52.10000000000041,5.055795004033,2.6988642809118106,1.44e+30
52.200000000000415,5.055411965776848,2.6938025058657895,1.44e+30
52.300000000000416,5.055031375680985,2.6887597232156173,1.44e+30
52.40000000000042,5.054653213574714,2.683735799134732,1.44e+30
52.50000000000042,5.054277459503435,2.678730600900077,1.44e+30
52.60000000000042,5.053904093725846,2.6737439968793937,1.44e+30
52.70000000000042,5.053533096711197,2.6687758565186503,1.44e+30
52.80000000000042,5.053164449136586,2.6638260503296705,1.44e+30
52.900000000000425,5.052798131884288,2.658894449877813,1.44e+30
53.000000000000426,5.05243412603913,2.6539809277699202,1.44e+30
53.10000000000043,5.052072412885909,2.64908535764231,1.44e+30
53.20000000000043,5.051712973906838,2.64420761414892,1.44e+30
53.30000000000043,5.05135579077904,2.6393475729496494,1.44e+30
53.40000000000043,5.051000845372075,2.6345051106987727,1.44e+30
53.50000000000043,5.050648119745507,2.6296801050335175,1.44e+30
53.600000000000435,5.050297596146503,2.6248724345627696,1.44e+30
53.700000000000436,5.049949257007474,2.620081978855903,1.44e+30
53.80000000000044,5.04960308494374,2.6153086184317313,1.44e+30
53.90000000000044,5.049259062751245,2.6105522347475953,1.44e+30
54.00000000000044,5.048917173404292,2.6058127101885806,1.44e+30
54.10000000000044,5.048577400053318,2.6010899280568234,1.44e+30
54.20000000000044,5.048239726022702,2.596383772560963,1.44e+30
54.300000000000445,5.047904134808603,2.5916941288057322,1.44e+30
