Time,Mass,Radius,Lx
23.0,11.419806757177295,6.41,1.4400000000000044e+30
23.1,11.41727831584238,6.403743500047025,1.4330151463418038e+30
23.200000000000003,11.414769172145165,6.397527407890109,1.4260941266342146e+30
23.300000000000004,11.412279088191957,6.3913512827907795,1.4192360861134417e+30
23.400000000000006,11.409807830090195,6.385214690701259,1.41244018506433e+30
23.500000000000007,11.407355167863688,6.379117204135081,1.4057055984925302e+30
23.60000000000001,11.404920875370012,6.373058402040705,1.399031515805166e+30
23.70000000000001,11.402504730219988,6.367037869678111,1.3924171404997456e+30
23.80000000000001,11.40010651369921,6.3610551984982475,1.385861689861072e+30
23.900000000000013,11.397726010691528,6.355109986025255,1.3793643946659136e+30
24.000000000000014,11.39536300960446,6.349201835741418,1.3729244988952041e+30
24.100000000000016,11.39301730229645,6.343330356974747,1.3665412594535502e+30
24.200000000000017,11.390688684005944,6.337495164789132,1.360213945895832e+30
24.30000000000002,11.38837695328221,6.331695879876994,1.3539418401606892e+30
24.40000000000002,11.386081911917854,6.325932128454371,1.3477242363106877e+30
24.50000000000002,11.38380336488301,6.32020354215836,1.3415604402789818e+30
24.600000000000023,11.381541120261113,6.314509757946892,1.3354497696222713e+30
24.700000000000024,11.379294989186253,6.308850418000729,1.3293915532798852e+30
24.800000000000026,11.377064785782022,6.303225169627641,1.323385131338805e+30
24.900000000000027,11.374850327101859,6.297633665168743,1.3174298548044668e+30
25.00000000000003,11.37265143307081,6.29207556190687,1.3115250853771698e+30
25.10000000000003,11.370467926428692,6.286550521977,1.3056701952339382e+30
25.20000000000003,11.368299632674594,6.28105821227863,1.2998645668156794e+30
25.300000000000033,11.366146380012713,6.275598304390066,1.2941075926194913e+30
25.400000000000034,11.36400799929946,6.270170474484596,1.288398674995971e+30
25.500000000000036,11.361884323991806,6.26477440324847,1.282737225951389e+30
25.600000000000037,11.359775190096842,6.259409775800654,1.2771226669545936e+30
25.70000000000004,11.357680436122523,6.254076281614324,1.271554428748509e+30
25.80000000000004,11.355599903029542,6.248773614440028,1.2660319511661094e+30
25.90000000000004,11.353533434184337,6.243501472230514,1.2605546829507359e+30
26.000000000000043,11.35148087531316,6.238259557067142,1.2551220815806473e+30
26.100000000000044,11.349442074457215,6.233047575087847,1.2497336130976808e+30
26.200000000000045,11.34741688192883,6.227865236416671,1.2443887519399163e+30
26.300000000000047,11.3454051502686,6.22271225509472,1.2390869807782338e+30
26.40000000000005,11.343406734203539,6.2175883490126225,1.233827790356659e+30
26.50000000000005,11.34142149060614,6.212493239844356,1.2286106793363963e+30
26.60000000000005,11.33944927845439,6.207426652982486,1.2234351541434497e+30
26.700000000000053,11.33748995879267,6.202388317474741,1.2183007288197351e+30
26.800000000000054,11.33554339469352,6.197377965961881,1.2132069248775936e+30
26.900000000000055,11.33360945122027,6.192395334616867,1.2081532711576139e+30
27.000000000000057,11.331687995390489,6.187440163085283,1.2031393036896767e+30
27.10000000000006,11.329778896140251,6.182512194426943,1.1981645655571374e+30
27.20000000000006,11.327882024289185,6.17761117505874,1.1932286067640643e+30
27.30000000000006,11.32599725250628,6.1727368546986,1.1883309841054516e+30
27.400000000000063,11.32412445527646,6.167888986310617,1.1834712610403339e+30
27.500000000000064,11.322263508867866,6.163067326051278,1.1786490075677203e+30
27.600000000000065,11.32041429129986,6.1582716332167475,1.1738638001052825e+30
27.700000000000067,11.318576682311711,6.153501670191236,1.1691152213707214e+30
27.800000000000068,11.316750563331968,6.148757202396402,1.1644028602657453e+30
27.90000000000007,11.314935817448477,6.144037998241721,1.1597263117625932e+30
28.00000000000007,11.313132329379044,6.13934382907588,1.1550851767930374e+30
28.100000000000072,11.311339985442729,6.134674469139119,1.1504790621398048e+30
28.200000000000074,11.309558673531736,6.130029695516498,1.145907580330352e+30
28.300000000000075,11.30778828308391,6.125409288092081,1.1413703495329406e+30
28.400000000000077,11.306028705055807,6.120813029504047,1.1368669934549483e+30
28.500000000000078,11.304279831896327,6.116240705100628,1.1323971412433665e+30
28.60000000000008,11.302541557520904,6.111692102896939,1.1279604273874247e+30
28.70000000000008,11.300813777286232,6.1071670135326155,1.1235564916232924e+30
28.800000000000082,11.299096387965514,6.102665230230304,1.1191849788408057e+30
28.900000000000084,11.29738928772423,6.098186548754903,1.1148455389921687e+30
29.000000000000085,11.295692376096383,6.093730767373616,1.1105378270025812e+30
29.100000000000087,11.294005553961274,6.089297686816762,1.1062615026827472e+30
29.200000000000088,11.292328723520702,6.08488711023932,1.1020162306432147e+30
29.30000000000009,11.290661788276676,6.080498843183227,1.0978016802105069e+30
29.40000000000009,11.289004653009544,6.076132693540343,1.0936175253449977e+30
29.500000000000092,11.287357223756587,6.0717884715161645,1.0894634445604911e+30
29.600000000000094,11.285719407791039,6.067465989594185,1.0853391208454629e+30
29.700000000000095,11.284091113601523,6.06316506250093,1.0812442415859265e+30
29.800000000000097,11.282472250871912,6.058885507171652,1.0771784984898812e+30
29.900000000000098,11.280862730461577,6.054627142716647,1.0731415875133072e+30
30.0000000000001,11.279262464386044,6.050389790388218,1.0691332087876701e+30
30.1000000000001,11.27767136579802,6.046173273548211,1.0651530665489008e+30
30.200000000000102,11.276089348968808,6.0419774176362,1.0612008690678114e+30
30.300000000000104,11.27451632927008,6.037802050138199,1.0572763285819197e+30
30.400000000000105,11.272952223156004,6.033647000555982,1.0533791612286438e+30
30.500000000000107,11.271396948145737,6.029512100376962,1.0495090869798385e+30
30.600000000000108,11.269850422806243,6.025397183044602,1.0456658295776401e+30
30.70000000000011,11.268312566735451,6.021302083929353,1.0418491164715904e+30
30.80000000000011,11.266783300545745,6.017226640300148,1.0380586787570092e+30
30.900000000000112,11.265262545847762,6.0131706912963825,1.0342942511145887e+30
31.000000000000114,11.263750225234512,6.009134077900409,1.0305555717511799e+30
31.100000000000115,11.262246262265798,6.00511664291051,1.0268423823417424e+30
31.200000000000117,11.260750581452932,6.001118230914372,1.0231544279724354e+30
31.300000000000118,11.259263108243749,5.997138688263016,1.0194914570848199e+30
31.40000000000012,11.2577837690079,5.99317786304519,1.0158532214211484e+30
31.50000000000012,11.256312491022427,5.989235605062225,1.0122394759707183e+30
31.600000000000122,11.254849202457603,5.985311765803306,1.0086499789172628e+30
31.700000000000124,11.25339383236305,5.981406198421228,1.0050844915873589e+30
31.800000000000125,11.25194631065411,5.9775187577084985,1.001542778399827e+30
31.900000000000126,11.250506568098473,5.973649300073944,9.980246068161025e+29
32.00000000000013,11.24907453630305,5.969797683519655,9.94529747291555e+29
32.10000000000013,11.247650147701098,5.965963767618359,9.910579732277365e+29
32.20000000000013,11.246233335539573,5.962147413491174,9.87609060925538e+29
32.30000000000013,11.244824033866731,5.958348483785773,9.841827895392303e+29
32.400000000000134,11.243422177519939,5.954566842654872,9.807789410313774e+29
32.500000000000135,11.242027702113726,5.95080235573514,9.773973001285957e+29
32.600000000000136,11.240640544028038,5.947054890126417,9.74037654278144e+29
32.70000000000014,11.239260640396722,5.943324314371335,9.70699793605327e+29
32.80000000000014,11.23788792909621,5.939610498435258,9.673835108716933e+29
32.90000000000014,11.236522348734404,5.935913313686543,9.640886014340103e+29
33.00000000000014,11.235163838639773,5.932232632877181,9.608148632040002e+29
33.10000000000014,11.233812338850639,5.928568330123721,9.575620966088203e+29
33.200000000000145,11.232467790104655,5.924920280888534,9.543301045522726e+29
33.300000000000146,11.23113013382848,5.921288361961391,9.511186923767247e+29
33.40000000000015,11.229799312127616,5.917672451441321,9.4792766782573e+29
33.50000000000015,11.22847526777646,5.9140724287188196,9.447568410073296e+29
33.60000000000015,11.227157944208498,5.9104881744582976,9.416060243580233e+29
33.70000000000015,11.225847285506696,5.906919570580865,9.384750326073939e+29
33.80000000000015,11.224543236394046,5.90336650024736,9.353636827433743e+29
33.900000000000155,11.22324574222429,5.899828847841691,9.322717939781376e+29
34.000000000000156,11.221954748972792,5.896306498954422,9.291991877146055e+29
34.10000000000016,11.220670203227584,5.892799340366643,9.261456875135551e+29
34.20000000000016,11.219392052180561,5.889307260034098,9.231111190613147e+29
34.30000000000016,11.218120243618824,5.8858301470715695,9.200953101380365e+29
34.40000000000016,11.216854725916182,5.882367891737514,9.170980905865336e+29
34.50000000000016,11.215595448024798,5.878920385418956,9.141192922816692e+29
34.600000000000165,11.214342359466972,5.875487520616604,9.11158749100288e+29
34.700000000000166,11.213095410327073,5.872069190930221,9.082162968916774e+29
34.80000000000017,11.211854551243604,5.868665291044229,9.052917734485481e+29
34.90000000000017,11.21061973340141,5.865275716713537,9.023850184785246e+29
35.00000000000017,11.209390908524004,5.861900364749593,8.994958735761314e+29
35.10000000000017,11.208168028866035,5.858539133006664,8.966241821952719e+29
35.20000000000017,11.206951047205886,5.855191920368325,8.937697896221819e+29
35.300000000000175,11.205739916838379,5.85185862673417,8.909325429488539e+29
35.400000000000176,11.204534591567622,5.8485391530067155,8.881122910469205e+29
35.50000000000018,11.20333502569997,5.845233401078538,8.853088845419878e+29
35.60000000000018,11.20214117403709,5.8419412738195735,8.825221757884106e+29
35.70000000000018,11.200952991869165,5.838662675064654,8.797520188444983e+29
35.80000000000018,11.199770434968196,5.835397509601211,8.769982694481482e+29
35.90000000000018,11.198593459581408,5.832145683157176,8.742607849928892e+29
36.000000000000185,11.197422022424792,5.828907102389081,8.715394245043373e+29
36.100000000000186,11.196256080676719,5.825681674870317,8.68834048617048e+29
36.20000000000019,11.195095591971683,5.822469309079596,8.661445195517595e+29
36.30000000000019,11.193940514394141,5.819269914389585,8.634707010930217e+29
36.40000000000019,11.192790806472448,5.8160834010556925,8.608124585671988e+29
36.50000000000019,11.191646427172898,5.812909680205072,8.581696588208429e+29
36.60000000000019,11.190507335893852,5.809748663825735,8.555421701994277e+29
36.700000000000195,11.18937349245997,5.806600264755872,8.529298625264374e+29
36.800000000000196,11.188244857116537,5.803464396673325,8.503326070828041e+29
36.9000000000002,11.18712139052387,5.8003409740851986,8.477502765866843e+29
37.0000000000002,11.18600305375183,5.79722991231767,8.451827451735719e+29
37.1000000000002,11.184889808274397,5.794131127505887,8.426298883767379e+29
37.2000000000002,11.183781615964369,5.7910445365840975,8.400915831079926e+29
37.3000000000002,11.182678439088106,5.787970057275842,8.375677076387628e+29
37.400000000000205,11.181580240300384,5.784907608084373,8.350581415814805e+29
37.500000000000206,11.180486982639325,5.781857108283155,8.325627658712715e+29
37.60000000000021,11.17939862952139,5.778818477906523,8.300814627479466e+29
37.70000000000021,11.178315144736484,5.7757916377404985,8.276141157382817e+29
37.80000000000021,11.1772364924431,5.772776509313719,8.251606096385863e+29
37.90000000000021,11.176162637163571,5.769773014888502,8.227208304975535e+29
38.00000000000021,11.17509354377938,5.766781077452057,8.202946655993855e+29
38.100000000000215,11.174029177526537,5.763800620707801,8.178820034471906e+29
38.200000000000216,11.172969503991048,5.760831569066819,8.154827337466464e+29
38.30000000000022,11.17191448910444,5.7578738476394475,8.130967473899239e+29
38.40000000000022,11.17086409913935,5.754927382226965,8.107239364398669e+29
38.50000000000022,11.169818300705202,5.751992099313415,8.083641941144241e+29
38.60000000000022,11.16877706074393,5.749067926057555,8.06017414771328e+29
38.70000000000022,11.167740346525774,5.746154790284901,8.036834938930152e+29
38.800000000000225,11.166708125645147,5.743252620479893,8.013623280717845e+29
38.900000000000226,11.165680366016556,5.740361345778184,7.990538149951903e+29
39.00000000000023,11.164657035870587,5.737480895959029,7.967578534316625e+29
39.10000000000023,11.163638103749955,5.734611201437783,7.944743432163539e+29
39.20000000000023,11.162623538505606,5.731752193258499,7.922031852372069e+29
39.30000000000023,11.161613309292887,5.728903803086647,7.899442814212384e+29
39.40000000000023,11.160607385567769,5.726065963201926,7.876975347210361e+29
39.500000000000234,11.159605737083119,5.723238606491174,7.854628491014661e+29
39.600000000000236,11.158608333885047,5.720421666441381,7.832401295265848e+29
39.70000000000024,11.15761514630929,5.71761507713281,7.810292819467514e+29
39.80000000000024,11.156626144977654,5.714818773232192,7.788302132859414e+29
39.90000000000024,11.155641300794514,5.712032689986033,7.766428314292518e+29
40.00000000000024,11.154660584943363,5.70925676321402,7.744670452105995e+29
40.10000000000024,11.15368396888341,5.706490929302492,7.723027644006063e+29
40.200000000000244,11.152711424346228,5.703735125198026,7.701498996946692e+29
40.300000000000246,11.151742923332456,5.700989288401106,7.680083627012102e+29
40.40000000000025,11.150778438108546,5.6982533569598655,7.658780659301071e+29
40.50000000000025,11.149817941203557,5.695527269463946,7.637589227812953e+29
40.60000000000025,11.148861405405993,5.692810965038392,7.616508475335447e+29
40.70000000000025,11.147908803760698,5.690104383337681,7.595537553334038e+29
40.80000000000025,11.146960109565784,5.687407464539814,7.574675621843098e+29
40.900000000000254,11.146015296369606,5.684720149340458,7.553921849358614e+29
41.000000000000256,11.14507433796779,5.682042378947224,7.533275412732525e+29
41.10000000000026,11.14413720840029,5.679374095073975,7.512735497068626e+29
41.20000000000026,11.143203881948494,5.676715239935232,7.492301295620023e+29
41.30000000000026,11.142274333132377,5.674065756240653,7.471972009688098e+29
41.40000000000026,11.141348536707683,5.671425587189584,7.451746848522981e+29
41.50000000000026,11.140426467663158,5.668794676465688,7.431625029225479e+29
41.600000000000264,11.139508101217812,5.666172968231639,7.411605776650453e+29
41.700000000000266,11.138593412818231,5.6635604071238825,7.391688323311612e+29
41.80000000000027,11.137682378135919,5.660956938247486,7.3718719092877e+29
41.90000000000027,11.136774973064677,5.658362507171034,7.35215578213005e+29
42.00000000000027,11.13587117371803,5.655777059921611,7.3325391967715e+29
42.10000000000027,11.134970956426674,5.6532005429798335,7.313021415436607e+29
42.20000000000027,11.13407429773597,5.650632903274953,7.293601707553189e+29
42.300000000000274,11.13318117440347,5.6480740881800395,7.274279349665133e+29
42.400000000000276,11.132291563396477,5.645524045507194,7.255053625346463e+29
42.50000000000028,11.131405441889639,5.642982723502861,7.235923825116644e+29
42.60000000000028,11.13052278726258,5.640450070843185,7.216889246357113e+29
42.70000000000028,11.129643577097553,5.637926036629408,7.197949193228993e+29
42.80000000000028,11.128767789177141,5.6354105703833675,7.179102976591989e+29
42.90000000000028,11.127895401481977,5.632903622043022,7.160349913924442e+29
43.000000000000284,11.1270263921885,5.630405141958047,7.141689329244528e+29
43.100000000000286,11.126160739666744,5.62791508088549,7.123120553032553e+29
43.20000000000029,11.125298422478155,5.625433389985462,7.104642922154378e+29
43.30000000000029,11.124439419373433,5.622960020816912,7.0862557797859e+29
43.40000000000029,11.123583709290415,5.620494925333439,7.067958475338622e+29
43.50000000000029,11.122731271351975,5.61803805587916,7.049750364386252e+29
43.60000000000029,11.12188208486396,5.615589365184629,7.031630808592336e+29
43.700000000000294,11.12103612931315,5.613148806362821,7.013599175638912e+29
43.800000000000296,11.120193384365246,5.610716332905142,6.995654839156154e+29
43.9000000000003,11.119353829862884,5.608291898677512,6.977797178652997e+29
44.0000000000003,11.118517445823688,5.605875457916497,6.96002557944873e+29
44.1000000000003,11.117684212438323,5.60346696522547,6.942339432605541e+29
44.2000000000003,11.116854110068603,5.60106637557084,6.924738134861982e+29
44.3000000000003,11.116027119245603,5.598673644278315,6.907221088567374e+29
44.400000000000304,11.115203220667803,5.596288727029227,6.889787701617096e+29
44.500000000000306,11.114382395199268,5.593911579856892,6.87243738738878e+29
44.60000000000031,11.113564623867829,5.591542159143007,6.85516956467937e+29
44.70000000000031,11.112749887863306,5.589180421614115,6.837983657643053e+29
44.80000000000031,11.111938168535751,5.586826324338096,6.820879095730023e+29
44.90000000000031,11.11112944739371,5.584479824720708,6.803855313626099e+29
45.00000000000031,11.110323706102509,5.582140880502161,6.786911751193148e+29
45.100000000000314,11.109520926482567,5.579809449753757,6.770047853410326e+29
45.200000000000315,11.108721090507723,5.577485490874548,6.753263070316105e+29
45.30000000000032,11.107924180303591,5.575168962588032,6.7365568569511e+29
45.40000000000032,11.107130178145937,5.572859823938922,6.719928673301645e+29
45.50000000000032,11.10633906645907,5.570558034289918,6.703377984244144e+29
45.60000000000032,11.105550827814263,5.568263553318536,6.68690425949017e+29
45.70000000000032,11.104765444928185,5.5659763410139735,6.67050697353228e+29
45.800000000000324,11.103982900661366,5.563696357674018,6.654185605590575e+29
45.900000000000325,11.103203178016665,5.561423563901979,6.637939639559968e+29
46.00000000000033,11.10242626013777,5.559157920603669,6.62176856395814e+29
46.10000000000033,11.101652130307714,5.556899388984418,6.605671871874208e+29
46.20000000000033,11.100880771947411,5.554647930546121,6.589649060918057e+29
46.30000000000033,11.100112168614205,5.5524035070843265,6.573699633170341e+29
46.40000000000033,11.099346304000445,5.55016608068536,6.557823095133162e+29
46.500000000000334,11.098583161932075,5.5479356137234666,6.542018957681375e+29
46.600000000000335,11.097822726367237,5.54571206885801,6.526286736014548e+29
46.70000000000034,11.097064981394903,5.54349540903069,6.510625949609545e+29
46.80000000000034,11.096309911233512,5.541285597462803,6.49503612217373e+29
46.90000000000034,11.09555750022963,5.53908259765252,6.479516781598785e+29
47.00000000000034,11.094807732856632,5.536886373372222,6.46406745991512e+29
47.10000000000034,11.094060593713387,5.534696888665832,6.448687693246893e+29
47.200000000000344,11.093316067522972,5.532514107846213,6.433377021767589e+29
47.300000000000345,11.092574139131395,5.530337995492571,6.418134989656198e+29
47.40000000000035,11.091834793506338,5.528168516447906,6.402961145053941e+29
47.50000000000035,11.091098015735916,5.526005635816487,6.387855040021562e+29
47.60000000000035,11.09036379102744,5.5238493189613465,6.372816230497172e+29
47.70000000000035,11.089632104706217,5.521699531501813,6.357844276254619e+29
47.80000000000035,11.08890294221434,5.51955623931109,6.342938740862411e+29
47.900000000000354,11.088176289109512,5.517419408513816,6.3280991916431496e+29
48.000000000000355,11.087452131063879,5.515289005483706,6.313325199633487e+29
48.10000000000036,11.08673045386287,5.513164996841188,6.298616339544587e+29
48.20000000000036,11.086011243404062,5.511047349451074,6.283972189723097e+29
48.30000000000036,11.085294485696052,5.508936030420255,6.269392332112606e+29
48.40000000000036,11.084580166857341,5.506831007095439,6.2548763522155945e+29
48.50000000000036,11.083868273115241,5.504732247060884,6.240423839055863e+29
48.600000000000364,11.083158790804786,5.502639718136191,6.2260343851414336e+29
48.700000000000365,11.082451706367658,5.500553388374093,6.211707586427919e+29
48.80000000000037,11.081747006351133,5.4984732260583,6.197443042282348e+29
