Time,Mass,Radius,Lx
23.0,5.596940043010154,6.41,1.3e+30
23.1,5.590553079294179,6.381037611662183,1.2752474159660922e+30
23.200000000000003,5.584370115808641,6.352784397232199,1.2510700187002163e+30
23.300000000000004,5.578382479140709,6.325217336355749,1.2274520488710872e+30
23.400000000000006,5.572581951121353,6.298314291775828,1.204378243952064e+30
23.500000000000007,5.566960740908439,6.272053973303361,1.1818338205272531e+30
23.60000000000001,5.561511458988761,6.246415903055418,1.159804457299554e+30
23.70000000000001,5.556227092956244,6.221380381961833,1.1382762787699839e+30
23.80000000000001,5.551100984934654,6.196928457532181,1.117235839559073e+30
23.900000000000013,5.546126810523364,6.1730418928679285,1.0966701093425096e+30
24.000000000000014,5.541298559154178,6.149703136898694,1.0765664583745275e+30
24.100000000000016,5.536610515755894,6.126895295817061,1.0569126435737776e+30
24.200000000000017,5.532057243631303,6.104602105682627,1.0376967951476133e+30
24.30000000000002,5.527633568458722,6.082807906163426,1.0189074037318373e+30
24.40000000000002,5.523334563336902,6.061497615380574,1.0005333080240303e+30
24.50000000000002,5.519155534798457,6.040656705820879,9.825636828895939e+29
24.600000000000023,5.515092009722666,6.0202711812809095,9.64988027920604e+29
24.700000000000024,5.511139723083837,6.000327554805816,9.477961564284822e+29
24.800000000000026,5.507294606476244,5.980812827585821,9.309781848523675e+29
24.900000000000027,5.503552777361179,5.961714468773623,9.145245225658937e+29
25.00000000000003,5.499910528985749,5.9430203961861885,8.9842586206586e+29
25.10000000000003,5.496364320926862,5.924718957855061,8.826731695270362e+29
25.20000000000003,5.49291077021733,5.906798914390034,8.672576757080504e+29
25.300000000000033,5.489546643014251,5.889249422121788,8.521708671939781e+29
25.400000000000034,5.486268846772765,5.872060016990151,8.37404477961903e+29
25.500000000000036,5.483074422891034,5.855220599145477,8.229504812563264e+29
25.600000000000037,5.47996053979481,5.838721418231879,8.088010817618802e+29
25.70000000000004,5.4769244864322335,5.822553059321894,7.949487080613647e+29
25.80000000000004,5.473963666151703,5.806706429473493,7.813860053676446e+29
25.90000000000004,5.471075590937562,5.791172744881241,7.68105828518451e+29
26.000000000000043,5.468257875980213,5.775943518594666,7.551012352236112e+29
26.100000000000044,5.4655082345589205,5.761010548777888,7.423654795546813e+29
26.200000000000045,5.462824473217116,5.7463659074857,7.298920056673982e+29
26.300000000000047,5.460204487211457,5.732001929932283,7.176744417477727e+29
26.40000000000005,5.457646256217198,5.717911204229825,7.057065941730487e+29
26.50000000000005,5.4551478402736615,5.70408656157529,6.939824418791223e+29
26.60000000000005,5.4527073759547156,5.6905210668645125,6.824961309263782e+29
26.700000000000053,5.450323072750226,5.6772080097138655,6.712419692562433e+29
26.800000000000054,5.447993209645392,5.664140895870448,6.602144216310775e+29
26.900000000000055,5.445716131885781,5.651313438992844,6.494081047503424e+29
27.000000000000057,5.443490247916712,5.6387195527851475,6.388177825362774e+29
27.10000000000006,5.4413140264863875,5.626353343467921,6.284383615826022e+29
27.20000000000006,5.439185993902899,5.6142091025703795,6.1826488676003266e+29
27.30000000000006,5.437104731435875,5.6022813000289595,6.082925369726546e+29
27.400000000000063,5.435068872854172,5.590564577578066,5.9851662105945e+29
27.500000000000064,5.433077102091551,5.579053742419502,5.88932573835504e+29
27.600000000000065,5.431128151032827,5.567743761157709,5.795359522676454e+29
27.700000000000067,5.4292207974134685,5.556629753988611,5.7032243177949045e+29
27.800000000000068,5.42735386282606,5.545706989130393,5.612878026810644e+29
27.90000000000007,5.425526210827482,5.534970877485128,5.524279667183711e+29
28.00000000000007,5.423736745141053,5.524416967520715,5.437389337384708e+29
28.100000000000072,5.4219844079482185,5.514040940363071,5.3521681846580304e+29
28.200000000000074,5.420268178264768,5.5038386050890775,5.268578373856659e+29
28.300000000000075,5.418587070396805,5.493805894211083,5.18658305730925e+29
28.400000000000077,5.4169401324720505,5.483938859344444,5.106146345681845e+29
28.500000000000078,5.415326445042306,5.474233667049766,5.027233279798007e+29
28.60000000000008,5.413745119753166,5.46468659484205,4.9498098033826454e+29
28.70000000000008,5.4121952980772985,5.455294027359292,4.873842736696151e+29
28.800000000000082,5.410676150107862,5.446052452683421,4.7992997510267955e+29
28.900000000000084,5.4091868734088,5.4369584588068225,4.726149344010585e+29
29.000000000000085,5.407726691918977,5.428008730238005,4.6543608157490084e+29
29.100000000000087,5.406294854907289,5.419200044740309,4.5839042456962184e+29
29.200000000000088,5.404890635976054,5.410529270197791,4.514750470288339e+29
29.30000000000009,5.4035133321101405,5.401993361602743,4.446871061288627e+29
29.40000000000009,5.4021622627694565,5.3935893581595735,4.3802383048232406e+29
29.500000000000092,5.40083676902254,5.385314380499947,4.3148251810833335e+29
29.600000000000094,5.399536212719142,5.377165628004491,4.2506053446701296e+29
29.700000000000095,5.398259975699797,5.369140376226346,4.187553105560535e+29
29.800000000000097,5.397007459040501,5.361235974412352,4.1256434106716715e+29
29.900000000000098,5.395778082330726,5.35344984311758,4.064851826003586e+29
30.0000000000001,5.394571282983087,5.345779471909339,4.0051545193401116e+29
30.1000000000001,5.393386515573087,5.338222417156847,3.94652824348869e+29
30.200000000000102,5.3922232512074455,5.330776299902934,3.888950320040601e+29
30.300000000000104,5.3910809769195955,5.323438803814396,3.832398623633823e+29
30.400000000000105,5.389959195091025,5.316207673207689,3.7768515667013476e+29
30.500000000000107,5.388857422897195,5.30908071114683,3.7222880846884595e+29
30.600000000000108,5.38777519177685,5.302055777610543,3.668687621723067e+29
30.70000000000011,5.386712046923587,5.295130787725776,3.616030116723792e+29
30.80000000000011,5.385667546798629,5.288303710064899,3.564295989931064e+29
30.900000000000112,5.384641262663784,5.281572565003971,3.513466129847021e+29
31.000000000000114,5.383632778133635,5.274935423139574,3.463521880570546e+29
31.100000000000115,5.382641688746068,5.2683904037619005,3.414445029514244e+29
31.200000000000117,5.381667601550263,5.261935673381777,3.3662177954906755e+29
31.300000000000118,5.38071013471136,5.255569444309504,3.318822817155595e+29
31.40000000000012,5.379768917131002,5.249289973283412,3.27224314179641e+29
31.50000000000012,5.378843588083052,5.243095560146208,3.226462214454486e+29
31.600000000000122,5.377933796863777,5.236984546567158,3.181463867370334e+29
31.700000000000124,5.3770392024558396,5.230955314808366,3.1372323097411212e+29
31.800000000000125,5.376159473205486,5.22500628653338,3.0937521177803094e+29
31.900000000000126,5.375294286512331,5.219135921656507,3.0510082250695967e+29
32.00000000000013,5.3744433285311795,5.213342717231237,3.008985913193684e+29
32.10000000000013,5.373606293885343,5.207625206376255,2.967670802648728e+29
32.20000000000013,5.372782885390964,5.201981957237633,2.927048844015658e+29
32.30000000000013,5.3719728137918406,5.196411571985791,2.887106309389852e+29
32.400000000000134,5.3711757975043115,5.190912685845891,2.847829784058959e+29
32.500000000000135,5.3703915623717595,5.185483966160442,2.8092061584209465e+29
32.600000000000136,5.369619841428313,5.18012411148283,2.7712226201347297e+29
32.70000000000014,5.368860374671362,5.174831850700691,2.7338666464959975e+29
32.80000000000014,5.368112908842502,5.169605942187932,2.697125997031113e+29
32.90000000000014,5.367377197216555,5.164445172984406,2.6609887063022138e+29
33.00000000000014,5.366652999398328,5.159348358002157,2.6254430769168613e+29
33.10000000000014,5.36594008112677,5.154314339257272,2.5904776727358407e+29
33.200000000000145,5.365238214086245,5.149341985126425,2.556081312272905e+29
33.300000000000146,5.3645471757245975,5.144430189627174,2.5222430622804853e+29
33.40000000000015,5.36386674907775,5.139577871721171,2.4889522315155983e+29
33.50000000000015,5.363196722600554,5.134783974639415,2.4561983646803512e+29
33.60000000000015,5.362536890003644,5.13004746522882,2.423971236531668e+29
33.70000000000015,5.361887050096047,5.12536733331927,2.392260846155017e+29
33.80000000000015,5.361247006633318,5.120742591110444,2.3610574113971066e+29
33.900000000000155,5.360616568170978,5.116172272577726,2.330351363452682e+29
34.000000000000156,5.359995547923039,5.111655432896517,2.3001333416007166e+29
34.10000000000016,5.359383763625421,5.107191147884254,2.2703941880854615e+29
34.20000000000016,5.3587810374040625,5.102778513459608,2.241124943137937e+29
34.30000000000016,5.358187195647537,5.098416645118143,2.212316840133641e+29
34.40000000000016,5.357602068884009,5.094104677423983,2.183961300882343e+29
34.50000000000016,5.357025491662342,5.089841763516814,2.156049931046002e+29
34.600000000000165,5.356457302437225,5.085627074633784,2.128574515680966e+29
34.700000000000166,5.355897343458133,5.081459799645742,2.101527014900721e+29
34.80000000000017,5.355345460661991,5.077339144607327,2.074899559655616e+29
34.90000000000017,5.354801503569404,5.073264332320457,2.0486844476260637e+29
35.00000000000017,5.354265325184302,5.069234601910743,2.0228741392258683e+29
35.10000000000017,5.353736781896883,5.065249208416387,1.9974612537124098e+29
35.20000000000017,5.353215733389722,5.061307422389161,1.9724385654005453e+29
35.300000000000175,5.352702042546941,5.057408529507069,1.947798999977169e+29
35.400000000000176,5.352195575366305,5.0535518301982485,1.923535630913485e+29
35.50000000000018,5.351696200874153,5.049736639275817,1.8996416759721296e+29
35.60000000000018,5.351203791043055,5.045962285583235,1.8761104938063863e+29
35.70000000000018,5.350718220712086,5.042228111649864,1.852935580648803e+29
35.80000000000018,5.350239367509636,5.038533473356413,1.8301105670866325e+29
35.90000000000018,5.349767111778654,5.034877739609873,1.8076292149215757e+29
36.000000000000185,5.349301336504237,5.031260292027733,1.7854854141114013e+29
36.100000000000186,5.348841927243485,5.0276805246310765,1.7636731797910845e+29
36.20000000000019,5.348388772057541,5.024137843546346,1.742186649371188e+29
36.30000000000019,5.347941761445734,5.0206316667154764,1.7210200797112718e+29
36.40000000000019,5.347500788281743,5.017161423614075,1.7001678443661947e+29
36.50000000000019,5.347065747751738,5.0137265549775005,1.6796244309032354e+29
36.60000000000019,5.34663653729439,5.010326512534482,1.6593844382880184e+29
36.700000000000195,5.346213056542718,5.006960758748101,1.639442574337305e+29
36.800000000000196,5.345795207267689,5.003628766563896,1.6197936532367596e+29
36.9000000000002,5.345382893323517,5.000330019164835,1.600432593121863e+29
37.0000000000002,5.344976020594603,4.997064009732998,1.5813544137202013e+29
37.1000000000002,5.344574496944058,4.993830241217701,1.5625542340534127e+29
37.2000000000002,5.344178232163753,4.990628226109889,1.5440272701971278e+29
37.3000000000002,5.343787137925853,4.987457486222641,1.525768833097287e+29
37.400000000000205,5.343401127735763,4.984317552477488,1.5077743264412714e+29
37.500000000000206,5.343020116886474,4.981207964696525,1.4900392445823306e+29
37.60000000000021,5.342644022414219,4.978128271399983,1.4725591705158318e+29
37.70000000000021,5.342272763055433,4.9750780296092145,1.4553297739059074e+29
37.80000000000021,5.341906259204953,4.9720568046548514,1.4383468091611125e+29
37.90000000000021,5.341544432875417,4.969064169990029,1.4216061135577536e+29
38.00000000000021,5.341187207657833,4.966099707008487,1.405103605409581e+29
38.100000000000215,5.340834508683268,4.963163004867426,1.3888352822825872e+29
38.200000000000216,5.3404862625856335,4.960253660314969,1.3727972192536795e+29
38.30000000000022,5.340142397465513,4.95737127752208,1.3569855672120395e+29
38.40000000000022,5.33980284285502,4.954515467918849,1.3413965512020178e+29
38.50000000000022,5.339467529683633,4.951685850034949,1.3260264688064378e+29
38.60000000000022,5.33913639024499,4.948882049344204,1.3108716885692269e+29
38.70000000000022,5.338809358164604,4.946103698113104,1.2959286484563163e+29
38.800000000000225,5.338486368368475,4.943350435253184,1.2811938543537882e+29
38.900000000000226,5.338167357052565,4.940621906177142,1.2666638786022706e+29
39.00000000000023,5.337852261653113,4.937917762658569,1.2523353585666222e+29
39.10000000000023,5.337541020817765,4.93523766269522,1.2382049952399632e+29
39.20000000000023,5.337233574377483,4.932581270375715,1.2242695518811458e+29
39.30000000000023,5.336929863319222,4.929948255749538,1.2105258526847795e+29
39.40000000000023,5.336629829759344,4.9273382947003,1.1969707814829523e+29
39.500000000000234,5.336333416917747,4.924751068822118,1.1836012804778177e+29
39.600000000000236,5.336040569092686,4.922186265299062,1.1704143490042328e+29
39.70000000000024,5.335751231636268,4.919643576787543,1.1574070423216662e+29
39.80000000000024,5.335465350930594,4.917122701301614,1.1445764704346093e+29
39.90000000000024,5.335182874364543,4.914623342101049,1.1319197969407486e+29
40.00000000000024,5.334903750311153,4.912145207582138,1.1194342379061807e+29
40.10000000000024,5.33462792810561,4.909688011171164,1.1071170607669673e+29
40.200000000000244,5.334355358023804,4.907251471220411,1.094965583256349e+29
40.300000000000246,5.334085991261445,4.904835310906705,1.0829771723569608e+29
40.40000000000025,5.333819779913728,4.902439258132377,1.0711492432774014e+29
40.50000000000025,5.333556676955513,4.900063045428588,1.0594792584525336e+29
40.60000000000025,5.33329663622202,4.8977064098609695,1.0479647265669115e+29
40.70000000000025,5.333039612390026,4.895369092937498,1.0366032016007388e+29
40.80000000000025,5.33278556095953,4.893050840518539,1.0253922818977894e+29
40.900000000000254,5.332534438235893,4.890751402729036,1.0143296092547306e+29
41.000000000000256,5.332286201312428,4.8884705338727255,1.0034128680313061e+29
41.10000000000026,5.332040808053431,4.886207992348394,9.926397842808516e+28
41.20000000000026,5.3317982170776395,4.883963540568079,9.820081249006331e+28
41.30000000000026,5.3315583877421,4.881736944877157,9.715156968015053e+28
41.40000000000026,5.331321280126448,4.879527975476309,9.611603460964079e+28
41.50000000000026,5.331086855017571,4.877336406345261,9.509399573072273e+28
41.600000000000264,5.330855073894655,4.875162015168305,9.408524525895664e+28
41.700000000000266,5.330625898914601,4.873004583261513,9.308957909749736e+28
41.80000000000027,5.330399292897795,4.87086389550161,9.210679676302004e+28
41.90000000000027,5.330175219314236,4.868739740256496,9.113670131330639e+28
42.00000000000027,5.329953642269994,4.866631909317309,9.017909927645013e+28
42.10000000000027,5.329734526494003,4.864540197832056,8.92338005816422e+28
42.20000000000027,5.329517837325172,4.862464404240732,8.83006184914963e+28
42.300000000000274,5.3293035406998035,4.860404330211873,8.737936953587739e+28
42.400000000000276,5.329091603139326,4.8583597805805905,8.646987344719575e+28
42.50000000000028,5.328881991738307,4.856330563287921,8.557195309713161e+28
42.60000000000028,5.328674674152761,4.8543164893215796,8.468543443475456e+28
42.70000000000028,5.328469618588736,4.852317372658009,8.381014642600438e+28
42.80000000000028,5.328266793791165,4.850333030205695,8.294592099450025e+28
42.90000000000028,5.328066169032987,4.8483632817497675,8.209259296364564e+28
43.000000000000284,5.32786771410452,4.846407949897786,8.124999999999956e+28
43.100000000000286,5.32767056081344,4.844462225298772,8.116888546714647e+28
43.20000000000029,5.327473859491945,4.842521399676004,8.108803961522383e+28
43.30000000000029,5.327277608109275,4.840585449459899,8.100746093539944e+28
43.40000000000029,5.327081804648372,4.838654351248284,8.092714793077352e+28
43.50000000000029,5.3268864471057515,4.836728081804848,8.084709911625716e+28
43.60000000000029,5.3266915334913865,4.834806618057572,8.076731301845224e+28
43.700000000000294,5.326497061828582,4.832889937097198,8.06877881755329e+28
43.800000000000296,5.32630303015386,4.830978016175718,8.060852313712832e+28
43.9000000000003,5.3261094365168375,4.829070832704861,8.05295164642071e+28
44.0000000000003,5.325916278980113,4.82716836425463,8.045076672896303e+28
44.1000000000003,5.325723555619149,4.8252705885518115,8.037227251470226e+28
44.2000000000003,5.3255312645221595,4.823377483478552,8.02940324157318e+28
44.3000000000003,5.325339403789997,4.821489027070907,8.02160450372495e+28
44.400000000000304,5.325147971536038,4.819605197517433,8.013830899523527e+28
44.500000000000306,5.324956965886078,4.817725973157792,8.006082291634372e+28
44.60000000000031,5.3247663849782185,4.8158513324813566,7.998358543779805e+28
44.70000000000031,5.32457622696276,4.813981254125855,7.990659520728518e+28
44.80000000000031,5.324386490002096,4.812115716876015,7.982985088285234e+28
44.90000000000031,5.324197172270607,4.810254699662224,7.975335113280468e+28
45.00000000000031,5.324008271954555,4.808398181559198,7.967709463560424e+28
45.100000000000314,5.323819787251981,4.8065461417846995,7.960108007977017e+28
45.200000000000315,5.3236317163726055,4.804698559698224,7.952530616378007e+28
45.30000000000032,5.323444057537722,4.80285541479973,7.944977159597248e+28
45.40000000000032,5.323256808980103,4.801016686728375,7.937447509445074e+28
45.50000000000032,5.323069968943896,4.799182355261267,7.929941538698772e+28
45.60000000000032,5.32288353568453,4.79735240031223,7.922459121093189e+28
45.70000000000032,5.3226975074686145,4.795526801930577,7.915000131311444e+28
45.800000000000324,5.322511882573848,4.793705540299908,7.907564444975749e+28
45.900000000000325,5.322326659288921,4.7918885957369115,7.900151938638338e+28
46.00000000000033,5.3221418359134205,4.790075948690182,7.892762489772509e+28
46.10000000000033,5.321957410757743,4.7882675797390615,7.885395976763763e+28
46.20000000000033,5.321773382142997,4.786463469592472,7.878052278901053e+28
46.30000000000033,5.321589748400916,4.784663599087784,7.87073127636814e+28
46.40000000000033,5.321406507873766,4.782867949189664,7.863432850235036e+28
46.500000000000334,5.321223658914259,4.781076500988988,7.85615688244956e+28
46.600000000000335,5.321041199885465,4.779289235701713,7.8489032558289866e+28
46.70000000000034,5.320859129160723,4.777506134667794,7.841671854051799e+28
46.80000000000034,5.320677445123556,4.775727179350092,7.834462561649522e+28
46.90000000000034,5.320496146167587,4.773952351333313,7.827275263998668e+28
47.00000000000034,5.320315230696453,4.7721816323229405,7.82010984731276e+28
47.10000000000034,5.320134697123724,4.77041500414421,7.812966198634468e+28
47.200000000000344,5.319954543872819,4.768652448741042,7.805844205827802e+28
47.300000000000345,5.319774769376922,4.766893948175042,7.798743757570434e+28
47.40000000000035,5.319595372078906,4.765139484624471,7.791664743346079e+28
47.50000000000035,5.31941635043125,4.763389040383252,7.7846070534369715e+28
47.60000000000035,5.31923770289596,4.761642597859981,7.777570578916438e+28
47.70000000000035,5.319059427944493,4.759900139576931,7.770555211641537e+28
47.80000000000035,5.318881524057677,4.7581616481690965,7.7635608442457956e+28
47.900000000000354,5.318703989725631,4.756427106383212,7.756587370132025e+28
48.000000000000355,5.318526823447701,4.754696497076832,7.749634683465212e+28
48.10000000000036,5.3183500237323695,4.752969803217367,7.7427026791655e+28
48.20000000000036,5.318173589097193,4.751247007881152,7.735791252901242e+28
48.30000000000036,5.317997518068723,4.749528094252543,7.728900301082131e+28
48.40000000000036,5.317821809182433,4.7478130456229914,7.722029720852419e+28
48.50000000000036,5.317646460982648,4.74610184539014,7.715179410084195e+28
48.600000000000364,5.317471472022474,4.74439447705695,7.708349267370751e+28
48.700000000000365,5.3172968408637225,4.742690924230792,7.701539192020017e+28
48.80000000000037,5.317122566076847,4.740991170622597,7.694749084048072e+28
48.90000000000037,5.31694864624087,4.739295200045975,7.687978844172716e+28
49.00000000000037,5.316775079943314,4.737602996416368,7.681228373807137e+28
