Time,Mass,Radius,Lx
23.0,14.63349375081365,8.74,1.44e+30
24.0,14.628316653062896,8.704876049209169,1.44e+30
25.0,14.623207098036875,8.671276239701838,1.44e+30
26.0,14.618161562699617,8.639075576077785,1.44e+30
27.0,14.613176837379203,8.608163659714647,1.44e+30
28.0,14.608249987326765,8.578442514697581,1.44e+30
29.0,14.603378320193645,8.549824802527095,1.44e+30
30.0,14.598559358343271,8.522232345254519,1.44e+30
31.0,14.593790815142071,8.495594895391802,1.44e+30
32.0,14.589070574547886,8.469849104833106,1.44e+30
33.0,14.584396673448692,8.44493765545565,1.44e+30
34.0,14.579767286309059,8.420808521976063,1.44e+30
35.0,14.575180711763863,8.397414343691212,1.44e+30
36.0,14.57063536086381,8.374711886404596,1.44e+30
37.0,14.566129746729034,8.352661579475024,1.44e+30
38.0,14.561662475408689,8.33122711577498,1.44e+30
39.0,14.557232237777908,8.310375104597234,1.44e+30
40.0,14.552837802330894,8.290074769337862,1.44e+30
41.0,14.548478008751083,8.270297683215842,1.44e+30
42.0,14.544151762157755,8.251017537441832,1.44e+30
43.0,14.53985802794348,8.232209937181684,1.44e+30
44.0,14.535595827129436,8.213852221419662,1.44e+30
45.0,14.531364232176069,8.19592330344733,1.44e+30
46.0,14.527162363195316,8.178403529214783,1.44e+30
47.0,14.522989384518041,8.161274551202613,1.44e+30
48.0,14.518844501576494,8.144519215822797,1.44e+30
49.0,14.514726958066959,8.128121462648078,1.44e+30
50.0,14.51063603336219,8.1120662340133,1.44e+30
51.0,14.506571040147085,8.09633939373669,1.44e+30
52.0,14.50253132225436,8.08092765388168,1.44e+30
53.0,14.498516252679769,8.065818508625737,1.44e+30
54.0,14.494525231758878,8.051000174426456,1.44e+30
55.0,14.490557685489492,8.036461535780635,1.44e+30
56.0,14.486613063985663,8.022192095962104,1.44e+30
57.0,14.4826908400508,8.008181932201154,1.44e+30
58.0,14.478790507858772,7.994421654834815,1.44e+30
59.0,14.474911581733101,7.98090237001418,1.44e+30
60.0,14.471053595015436,7.967615645604484,1.44e+30
61.0,14.467216099015365,7.954553479956234,1.44e+30
62.0,14.463398662034521,7.941708273262879,1.44e+30
63.0,14.459600868458567,7.9290728012528024,1.44e+30
64.0,14.455822317911382,7.91664019099156,1.44e+30
65.0,14.452062624466246,7.904403898594991,1.44e+30
66.0,14.448321415909378,7.8923576886753875,1.44e+30
67.0,14.444598333051626,7.8804956153619,1.44e+30
68.0,14.440893029084457,7.868812004753034,1.44e+30
69.0,14.437205168976815,7.857301438673844,1.44e+30
70.0,14.43353442890969,7.845958739623411,1.44e+30
71.0,14.42988049574552,7.8347789568096875,1.44e+30
72.0,14.42624306652985,7.823757353179088,1.44e+30
73.0,14.42262184802283,7.81288939335715,1.44e+30
74.0,14.419016556258418,7.802170732424759,1.44e+30
75.0,14.415426916129258,7.791597205461603,1.44e+30
76.0,14.411852660995455,7.781164817794881,1.44e+30
77.0,14.408293532315541,7.770869735897156,1.44e+30
78.0,14.404749279298125,7.760708278882245,1.44e+30
79.0,14.4012196585728,7.750676910552766,1.44e+30
80.0,14.397704433879026,7.740772231957058,1.44e+30
81.0,14.39420337577179,7.730990974416866,1.44e+30
82.0,14.390716261342927,7.721329992990681,1.44e+30
83.0,14.387242873957119,7.711786260340473,1.44e+30
84.0,14.383783003001604,7.7023568609724435,1.44e+30
85.0,14.380336443648735,7.693038985824769,1.44e+30
86.0,14.376902996630601,7.68382992717768,1.44e+30
87.0,14.373482468024935,7.674727073863096,1.44e+30
88.0,14.37007466905165,7.665727906753014,1.44e+30
89.0,14.36667941587934,7.656829994507428,1.44e+30
90.0,14.363296529441163,7.6480309895641145,1.44e+30
91.0,14.35992583525955,7.639328624354032,1.44e+30
92.0,14.356567163279207,7.6307207077272565,1.44e+30
93.0,14.353220347707971,7.6222051215756395,1.44e+30
94.0,14.349885226865025,7.613779817639331,1.44e+30
95.0,14.346561643036086,7.605442814485357,1.44e+30
96.0,14.34324944233517,7.597192194647215,1.44e+30
97.0,14.339948474572562,7.589026101915385,1.44e+30
98.0,14.336658593128663,7.580942738769277,1.44e+30
99.0,14.333379654833376,7.5729403639419,1.44e+30
100.0,14.330111519850764,7.565017290109113,1.44e+30
101.0,14.326854051568667,7.557171881695904,1.44e+30
102.0,14.32360711649304,7.549402552792682,1.44e+30
103.0,14.320370584146762,7.541707765175026,1.44e+30
104.0,14.317144326972668,7.534086026420841,1.44e+30
105.0,14.313928220240621,7.526535888119186,1.44e+30
106.0,14.31072214195838,7.519055944165537,1.44e+30
107.0,14.30752597278611,7.511644829138493,1.44e+30
108.0,14.304339595954334,7.5043012167533565,1.44e+30
109.0,14.301162897185153,7.497023818388234,1.44e+30
110.0,14.297995764616596,7.489811381678633,1.44e+30
111.0,14.294838088729922,7.4826626891768,1.44e+30
112.0,14.291689762279756,7.47557655707225,1.44e+30
113.0,14.28855068022691,7.468551833970135,1.44e+30
114.0,14.285420739673773,7.461587399724436,1.44e+30
115.0,14.28229983980213,7.454682164322971,1.44e+30
116.0,14.279187881813337,7.447835066821549,1.44e+30
117.0,14.276084768870696,7.441045074324659,1.44e+30
118.0,14.272990406043965,7.434311181010321,1.44e+30
119.0,14.2699047002559,7.427632407196793,1.44e+30
120.0,14.266827560230722,7.421007798449029,1.44e+30
121.0,14.263758896444442,7.414436424722849,1.44e+30
122.0,14.26069862107696,7.4079173795449655,1.44e+30
123.0,14.257646647965851,7.401449779227065,1.44e+30
124.0,14.254602892561769,7.395032762112248,1.44e+30
125.0,14.251567271885408,7.388665487852295,1.44e+30
126.0,14.248539704485948,7.3823471367142055,1.44e+30
127.0,14.24552011040091,7.376076908914628,1.44e+30
128.0,14.242508411117393,7.369854023980867,1.44e+30
129.0,14.239504529534601,7.363677720137167,1.44e+30
130.0,14.23650838992763,7.357547253715108,1.44e+30
131.0,14.233519917912455,7.351461898587004,1.44e+30
132.0,14.230539040412065,7.345420945621196,1.44e+30
133.0,14.22756568562371,7.339423702158273,1.44e+30
134.0,14.224599782987204,7.333469491507241,1.44e+30
135.0,14.221641263154256,7.327557652460758,1.44e+30
136.0,14.218690057958767,7.321687538828559,1.44e+30
137.0,14.215746100388085,7.31585851898827,1.44e+30
138.0,14.212809324555147,7.3100699754528335,1.44e+30
139.0,14.209879665671508,7.3043213044538415,1.44e+30
140.0,14.20695706002119,7.298611915540016,1.44e+30
141.0,14.204041444935354,7.2929412311902855,1.44e+30
142.0,14.201132758767727,7.287308686440712,1.44e+30
143.0,14.198230940870793,7.281713728524776,1.44e+30
144.0,14.195335931572687,7.276155816526382,1.44e+30
145.0,14.192447672154792,7.270634421045086,1.44e+30
146.0,14.189566104829993,7.26514902387305,1.44e+30
147.0,14.186691172721579,7.259699117683155,1.44e+30
148.0,14.18382281984276,7.254284205727922,1.44e+30
149.0,14.180960991076786,7.248903801548714,1.44e+30
150.0,14.178105632157628,7.243557428694842,1.44e+30
151.0,14.175256689651235,7.238244620452155,1.44e+30
152.0,14.172414110937305,7.2329649195807395,1.44e+30
153.0,14.169577844191586,7.22771787806138,1.44e+30
154.0,14.166747838368671,7.2225030568504,1.44e+30
155.0,14.163924043185274,7.21732002564257,1.44e+30
156.0,14.16110640910397,7.212168362641801,1.44e+30
157.0,14.158294887317393,7.207047654339249,1.44e+30
158.0,14.155489429732853,7.201957495298604,1.44e+30
159.0,14.152689988957388,7.1968974879482595,1.44e+30
160.0,14.149896518283205,7.191867242380113,1.44e+30
161.0,14.147108971673529,7.1868663761547324,1.44e+30
162.0,14.14432730374882,7.181894514112674,1.44e+30
163.0,14.141551469773363,7.176951288191676,1.44e+30
164.0,14.138781425642204,7.172036337249557,1.44e+30
165.0,14.136017127868442,7.167149306892583,1.44e+30
166.0,14.133258533570842,7.162289849309113,1.44e+30
167.0,14.130505600461772,7.157457623108304,1.44e+30
168.0,14.127758286835455,7.1526522931637295,1.44e+30
169.0,14.125016551556518,7.147873530461725,1.44e+30
170.0,14.122280354048838,7.1431210119542445,1.44e+30
171.0,14.119549654284665,7.13839442041615,1.44e+30
172.0,14.116824412774019,7.133693444306701,1.44e+30
173.0,14.114104590554362,7.129017777635127,1.44e+30
174.0,14.111390149180515,7.124367119830156,1.44e+30
175.0,14.108681050714834,7.1197411756133295,1.44e+30
176.0,14.105977257717617,7.115139654875989,1.44e+30
177.0,14.103278733237763,7.1105622725598145,1.44e+30
178.0,14.10058544080364,7.106008748540759,1.44e+30
179.0,14.097897344414182,7.101478807516324,1.44e+30
180.0,14.09521440853021,7.096972178895999,1.44e+30
181.0,14.092536598065939,7.0924885966948015,1.44e+30
182.0,14.089863878380708,7.088027799429774,1.44e+30
183.0,14.087196215270893,7.083589530019411,1.44e+30
184.0,14.084533574962016,7.079173535685815,1.44e+30
185.0,14.081875924101036,7.074779567859588,1.44e+30
186.0,14.079223229748822,7.070407382087321,1.44e+30
187.0,14.076575459372798,7.066056737941583,1.44e+30
188.0,14.073932580839761,7.061727398933382,1.44e+30
189.0,14.071294562408859,7.057419132426958,1.44e+30
190.0,14.068661372724728,7.053131709556878,1.44e+30
191.0,14.066032980810796,7.048864905147342,1.44e+30
192.0,14.06340935606272,7.044618497633618,1.44e+30
193.0,14.060790468241992,7.040392268985569,1.44e+30
194.0,14.05817628746966,7.036186004633162,1.44e+30
195.0,14.055566784220217,7.031999493393958,1.44e+30
196.0,14.052961929315607,7.027832527402456,1.44e+30
197.0,14.05036169391937,7.02368490204128,1.44e+30
198.0,14.047766049530908,7.019556415874138,1.44e+30
199.0,14.045174967979888,7.0154468705804796,1.44e+30
200.0,14.042588421420751,7.011356070891843,1.44e+30
201.0,14.040006382327352,7.007283824529795,1.44e+30
202.0,14.037428823487708,7.00322994214544,1.44e+30
203.0,14.034855717998862,6.999194237260459,1.44e+30
204.0,14.032287039261849,6.99517652620961,1.44e+30
205.0,14.029722760976778,6.99117662808465,1.44e+30
206.0,14.02716285713801,6.987194364679658,1.44e+30
207.0,14.024607302029436,6.983229560437694,1.44e+30
208.0,14.022056070219865,6.979282042398779,1.44e+30
209.0,14.01950913655849,6.9753516401491105,1.44e+30
210.0,14.016966476170463,6.971438185771547,1.44e+30
211.0,14.014428064452549,6.967541513797261,1.44e+30
212.0,14.011893877068877,6.963661461158567,1.44e+30
213.0,14.009363889946771,6.959797867142871,1.44e+30
214.0,14.006838079272674,6.955950573347716,1.44e+30
215.0,14.004316421488141,6.952119423636892,1.44e+30
216.0,14.001798893285928,6.948304264097594,1.44e+30
217.0,13.999285471606141,6.944504942998556,1.44e+30
218.0,13.996776133632478,6.94072131074919,1.44e+30
219.0,13.994270856788537,6.936953219859664,1.44e+30
220.0,13.991769618734198,6.933200524901913,1.44e+30
221.0,13.989272397362074,6.929463082471518,1.44e+30
222.0,13.986779170794032,6.925740751150503,1.44e+30
223.0,13.984289917377787,6.922033391470949,1.44e+30
224.0,13.981804615683552,6.918340865879445,1.44e+30
225.0,13.979323244500762,6.914663038702356,1.44e+30
226.0,13.97684578283485,6.910999776111842,1.44e+30
227.0,13.974372209904098,6.9073509460926665,1.44e+30
228.0,13.971902505136537,6.903716418409749,1.44e+30
229.0,13.969436648166905,6.900096064576406,1.44e+30
230.0,13.966974618833671,6.89648975782333,1.44e+30
231.0,13.96451639717611,6.892897373068232,1.44e+30
232.0,13.962061963431431,6.889318786886166,1.44e+30
233.0,13.959611298031957,6.885753877480475,1.44e+30
234.0,13.957164381602363,6.882202524654399,1.44e+30
235.0,13.954721194956958,6.878664609783275,1.44e+30
236.0,13.952281719097028,6.875140015787357,1.44e+30
237.0,13.949845935208211,6.871628627105203,1.44e+30
238.0,13.947413824657932,6.8681303296676255,1.44e+30
239.0,13.944985368992882,6.864645010872227,1.44e+30
240.0,13.94256054993654,6.861172559558446,1.44e+30
241.0,13.940153119554395,6.857719325545524,1.422370549900356e+30
242.0,13.93777648546732,6.854291503595167,1.4050285963211337e+30
243.0,13.935430121467352,6.850888755736474,1.387968291736767e+30
244.0,13.933113512583507,6.847510750164092,1.3711839309402566e+30
245.0,13.930826154794254,6.844157161099252,1.3546699470149067e+30
246.0,13.928567554748566,6.840827668654425,1.338420907435932e+30
247.0,13.926337229495239,6.837521958701608,1.3224315102972397e+30
248.0,13.92413470622019,6.834239722744005,1.3066965806588755e+30
249.0,13.92195952199149,6.830980657791093,1.2912110670108111e+30
250.0,13.919811223511852,6.827744466236922,1.2759700378489178e+30
251.0,13.917689366878339,6.824530855741598,1.2609686783591341e+30
252.0,13.91559351734904,6.821339539115792,1.2462022872059974e+30
253.0,13.913523249116496,6.818170234208257,1.2316662734218558e+30
254.0,13.911478145087651,6.81502266379621,1.2173561533932204e+30
255.0,13.909457796670099,6.811896555478521,1.203267547940857e+30
256.0,13.907461803564447,6.808791641571638,1.189396179490351e+30
257.0,13.905489773562575,6.805707659008123,1.175737869329998e+30
258.0,13.90354132235161,6.802644349237786,1.1622885349530008e+30
259.0,13.901616073323433,6.799601458131297,1.1490441874810677e+30
260.0,13.899713657389524,6.796578735886211,1.1360009291666116e+30
261.0,13.897833712801,6.793575936935353,1.1231549509708684e+30
262.0,13.895975884973664,6.790592819857496,1.1105025302153401e+30
263.0,13.894139826317906,6.787629147290234,1.0980400283040785e+30
264.0,13.892325196073303,6.784684685845042,1.0857638885144108e+30
265.0,13.890531660147788,6.781759206024404,1.0736706338538009e+30
266.0,13.888758890961206,6.778852482140994,1.0617568649806281e+30
267.0,13.887006567293167,6.775964292238838,1.0500192581867446e+30
268.0,13.885274374135017,6.773094418016383,1.038454563439752e+30
269.0,13.88356200254584,6.770242644751461,1.0270596024830162e+30
270.0,13.881869149512337,6.767408761228056,1.0158312669915102e+30
271.0,13.880195517812469,6.764592559664843,1.0047665167816465e+30
272.0,13.878540815882765,6.7617938356454435,9.938623780733244e+29
273.0,13.876904757689163,6.759012388050369,9.831159418024848e+29
274.0,13.875287062601279,6.756248018990561,9.725243619825284e+29
275.0,13.873687455270023,6.753500533742558,9.620848541130066e+29
276.0,13.872105665508425,6.750769740685154,9.517946936340606e+29
277.0,13.870541428175597,6.748055451237581,9.41651214425128e+29
278.0,13.868994483063748,6.745357479799155,9.316518073464997e+29
279.0,13.867464574788121,6.742675643690319,9.217939188223526e+29
280.0,13.865951452679809,6.740009763095074,9.120750494639357e+29
281.0,13.864454870681342,6.737359661004769,9.02492752731635e+29
282.0,13.862974587244958,6.734725163163162,8.930446336346824e+29
283.0,13.861510365233498,6.732106098012796,8.837283474673251e+29
284.0,13.860061971823832,6.72950229664257,8.74541598580304e+29
285.0,13.858629178412755,6.726913592736562,8.654821391865397e+29
295.0,13.845111789445564,6.701822082273404,7.81425944093993e+29
305.0,13.832931016487851,6.678074851472189,7.079406178580133e+29
315.0,13.821915454033746,6.655541531457551,6.434127452002082e+29
325.0,13.811920403046146,6.634109046749767,5.8651591630745896e+29
335.0,13.802823017417797,6.613678803287069,5.3615284475722396e+29
345.0,13.794518450955062,6.594164406903131,4.9141045798518314e+29
355.0,13.786916775628361,6.575489799881366,4.515247777276138e+29
365.0,13.779940499334199,6.557587729377829,4.1585325254863265e+29
375.0,13.773522553316282,6.540398481077236,3.838528089811145e+29
385.0,13.767604650230108,6.523868826201829,3.550623246490562e+29
395.0,13.762135936739478,6.507951141200936,3.290885454439545e+29
405.0,13.75707188169401,6.492602668024922,3.055947034170919e+29
415.0,13.75237335390025,6.477784889494989,2.842912661774773e+29
425.0,13.748005853368012,6.463462999405566,2.649283788639572e+29
435.0,13.74393886748241,6.449605450996922,2.4728965796754366e+29
445.0,13.740145329397103,6.436183570578093,2.3118707084172297e+29
455.0,13.736601160488247,6.423171225562696,2.1645669173307307e+29
465.0,13.733284882263195,6.410544538152571,2.0295516901305424e+29
475.0,13.730177285915392,6.3982816374796165,1.9055677223472313e+29
485.0,13.72726114993085,6.386362444281133,1.791509140677626e+29
495.0,13.724520997913348,6.374768483204575,1.6864006286034697e+29
505.0,13.721942890204735,6.363482718665235,1.5893797786827482e+29
515.0,13.719514244009474,6.352489410854222,1.4996821208328632e+29
525.0,13.717223677647489,6.341773989045551,1.4166283784350666e+29
535.0,13.71506087530165,6.331322939804064,1.3396135859881754e+29
545.0,13.713016469231071,6.321123708069598,1.2680977677673144e+29
555.0,13.711081936916367,6.311164609402136,1.2015979299226542e+29
565.0,13.709249511009522,6.301434751930065,1.1396811613350315e+29
575.0,13.70751210029642,6.291923966758105,1.0819586733939604e+29
585.0,13.70586322015757,6.282622745771256,1.0280806372934118e+29
595.0,13.704296931243151,6.273522185922044,9.777317007205841e+28
605.0,13.702807785270668,6.26461393921555,9.30627084944142e+28
615.0,13.701390777014181,6.255890167714348,8.86509179084855e+28
625.0,13.700041301688978,6.247343502976674,8.451445614050694e+28
635.0,13.69875511704893,6.238967009418806,8.063213882888184e+28
645.0,13.697528309609586,6.230754151158839,7.698471006066873e+28
655.0,13.696357264491096,6.222698761955719,7.355464046948031e+28
665.0,13.69523863844386,6.214795017905967,7.032594914890347e+28
675.0,13.694169335678314,6.207037412602332,6.728404626572821e+28
685.0,13.693146486170289,6.199420734494668,6.441559370383815e+28
695.0,13.692167426156018,6.19194004622444,6.170838144675369e+28
705.0,13.691229680567606,6.18459066573131,5.915121772614079e+28
715.0,13.690330947191178,6.177368148953613,5.67338312346449e+28
725.0,13.689469082357132,6.170268273965018,5.444678393203365e+28
735.0,13.688642087995273,6.163287026407382,5.2281393170325925e+28
745.0,13.687848099907937,6.1564205860954,5.022966203172143e+28
755.0,13.687085377131716,6.149665314682299,4.8284216917190845e+28
765.0,13.686352292273723,6.143017744287693,4.643825154725878e+28
775.0,13.685647322721582,6.136474566999322,4.4685476642915105e+28
785.0,13.684969042637935,6.130032625169637,4.30200746463227e+28
795.0,13.68431611566037,6.123688902436294,4.143665892023065e+28
805.0,13.68368728823656,6.117440515402976,3.993023693358597e+28
815.0,13.683081383532173,6.111284705923261,3.8496177000307534e+28
825.0,13.682497295855887,6.105218833935973,3.7130178189849716e+28
835.0,13.681933985551966,6.099240370805521,3.5828243073145143e+28
845.0,13.681390474316018,6.09334689312519,3.458665300671283e+28
855.0,13.68086584089433,6.087536076945385,3.3401945691948177e+28
865.0,13.680359217131253,6.08180569239239,3.2270894776552896e+28
875.0,13.67986978433278,6.0761535986464015,3.1190491291295557e+28
885.0,13.679396769917734,6.07057773925051,3.0157926738313936e+28
895.0,13.678939444330807,6.065076137724759,2.91705776674014e+28
905.0,13.678497118194313,6.05964689346191,2.82259915945277e+28
915.0,13.678069139677758,6.054288177883372,2.7321874132541727e+28
925.0,13.67765489206638,6.048998230835881,2.6456077217860988e+28
935.0,13.677253791511633,6.0437753572110005,2.5626588329201775e+28
945.0,13.676865284948203,6.03861792377112,2.483152060524796e+28
955.0,13.676488848163602,6.0335243561670495,2.4069103777767556e+28
965.0,13.676123984007697,6.028493136133449,2.3337675845217464e+28
975.0,13.675770220730666,6.023522798849541,2.263567541945833e+28
985.0,13.675427110438985,6.0186119304535435,2.1961634684947663e+28
995.0,13.675094227659926,6.013759165700211,2.131417291578983e+28
1005.0,13.674770832495879,6.008963040894848,2.08351097774625e+28
1015.0,13.674453251159377,6.004220863241192,2.0511602532954957e+28
1025.0,13.674140992771187,5.999531351349864,2.019621670700661e+28
1035.0,13.67383391693569,5.994893407742936,1.9888672135711304e+28
1045.0,13.67353188827976,5.990305968262591,1.9588700901184936e+28
1055.0,13.67323477622686,5.985768000748742,1.9296046685597095e+28
1065.0,13.672942454783337,5.981278503781217,1.9010464165006546e+28
1075.0,13.672654802336151,5.976836505482806,1.8731718440201465e+28
1085.0,13.67237170146132,5.972441062379637,1.8459584501965944e+28
1095.0,13.672093038742425,5.968091258315665,1.8193846728395925e+28
1105.0,13.671818704598566,5.963786203418206,1.7934298412071738e+28
1115.0,13.671548593121184,5.9595250331117136,1.768074131506272e+28
1125.0,13.671282601919218,5.955306907177087,1.7432985249893404e+28
1135.0,13.671020631972118,5.95113100885405,1.719084768474185e+28
1145.0,13.67076258749022,5.9469965439842625,1.6954153371269896e+28
1155.0,13.670508375782092,5.94290274019297,1.6722733993603733e+28
1165.0,13.670257907128406,5.93884884610714,1.6496427837092026e+28
1175.0,13.67001109466199,5.9348341306081505,1.6275079475568865e+28
